t_s,bpm
0.162,769.2307692307693
0.194,1875.0
0.258,937.5
0.28,2727.2727272727275
0.3,3000.0
0.344,1363.6363636363637
0.382,1578.9473684210527
0.422,1500.0
0.52,612.2448979591836
0.54,3000.0
0.618,769.2307692307693
0.682,937.5
0.7,3333.3333333333335
0.74,1500.0
0.76,3000.0
0.776,3750.0
0.8,2500.0
0.82,3000.0
0.842,2727.2727272727275
0.876,1764.705882352941
0.9,2500.0
1.018,508.4745762711865
1.08,967.741935483871
1.104,2500.0
1.142,1578.9473684210527
1.2,1034.4827586206895
1.238,1578.9473684210527
1.258,3000.0
1.3,1428.5714285714284
1.318,3333.3333333333335
1.38,967.741935483871
1.438,1034.4827586206895
1.482,1363.6363636363637
1.5,3333.3333333333335
1.52,3000.0
1.54,3000.0
1.558,3333.3333333333335
1.6,1428.5714285714284
1.618,3333.3333333333335
1.64,2727.2727272727275
1.662,2727.2727272727275
1.702,1500.0
1.78,769.2307692307693
1.8,3000.0
1.822,2727.2727272727275
1.858,1666.6666666666667
1.896,1578.9473684210527
1.936,1500.0
2.0,937.5
2.04,1500.0
2.12,750.0
2.136,3750.0
2.22,714.2857142857142
2.238,3333.3333333333335
2.258,3000.0
2.28,2727.2727272727275
2.298,3333.3333333333335
2.32,2727.2727272727275
2.336,3750.0
2.52,326.0869565217391
2.558,1578.9473684210527
2.602,1363.6363636363637
2.642,1500.0
2.7,1034.4827586206895
2.74,1500.0
2.78,1500.0
2.84,1000.0
2.882,1428.5714285714284
2.98,612.2448979591836
3.038,1034.4827586206895
3.056,3333.3333333333335
3.078,2727.2727272727275
3.118,1500.0
3.158,1500.0
3.194,1666.6666666666667
3.258,937.5
3.278,3000.0
3.342,937.5
3.382,1500.0
3.422,1500.0
3.438,3750.0
3.474,1666.6666666666667
3.498,2500.0
3.6,588.2352941176471
3.68,750.0
3.72,1500.0
3.736,3750.0
3.778,1428.5714285714284
3.8,2727.2727272727275
3.82,3000.0
3.862,1428.5714285714284
3.918,1071.4285714285713
3.994,789.4736842105264
4.016,2727.2727272727275
4.038,2727.2727272727275
4.066,2142.8571428571427
4.14,810.8108108108108
4.178,1578.9473684210527
4.2,2727.2727272727275
4.238,1578.9473684210527
4.258,3000.0
4.282,2500.0
4.322,1500.0
4.34,3333.3333333333335
4.422,731.7073170731707
4.438,3750.0
4.48,1428.5714285714284
4.54,1000.0
4.6,1000.0
4.698,612.2448979591836
4.738,1500.0
4.778,1500.0
4.862,714.2857142857142
4.88,3333.3333333333335
4.9,3000.0
4.936,1666.6666666666667
4.978,1428.5714285714284
5.038,1000.0
5.056,3333.3333333333335
5.136,750.0
5.176,1500.0
5.214,1578.9473684210527
5.238,2500.0
5.258,3000.0
5.4,422.5352112676057
5.422,2727.2727272727275
5.476,1111.111111111111
5.56,714.2857142857142
5.58,3000.0
5.598,3333.3333333333335
5.652,1111.111111111111
5.678,2307.6923076923076
5.718,1500.0
5.758,1500.0
5.92,370.3703703703704
5.938,3333.3333333333335
5.978,1500.0
5.996,3333.3333333333335
6.02,2500.0
6.084,937.5
6.1,3750.0
6.114,4285.714285714285
6.138,2500.0
6.168,2000.0
6.238,857.1428571428571
6.258,3000.0
6.32,967.741935483871
6.438,508.4745762711865
6.54,588.2352941176471
6.576,1666.6666666666667
6.598,2727.2727272727275
6.642,1363.6363636363637
6.678,1666.6666666666667
6.776,612.2448979591836
6.802,2307.6923076923076
6.822,3000.0
6.852,2000.0
6.892,1500.0
6.936,1363.6363636363637
6.984,1250.0
7.022,1578.9473684210527
7.138,517.2413793103448
7.338,300.0
7.458,500.0
7.514,1071.4285714285713
7.546,1875.0
7.556,6000.0
7.618,967.741935483871
7.7,731.7073170731707
7.714,4285.714285714285
7.766,1153.8461538461538
7.798,1875.0
7.898,600.0
7.958,1000.0
7.994,1666.6666666666667
8.1,566.0377358490566
8.12,3000.0
8.17,1200.0
8.212,1428.5714285714284
8.27,1034.4827586206895
8.304,1764.705882352941
8.346,1428.5714285714284
8.386,1500.0
8.406,3000.0
8.446,1500.0
8.512,909.090909090909
8.524,5000.0
8.66,441.17647058823525
8.752,652.1739130434783
8.828,789.4736842105264
8.91,731.7073170731707
8.976,909.090909090909
8.998,2727.2727272727275
9.096,612.2448979591836
9.12,2500.0
9.18,1000.0
9.256,789.4736842105264
9.336,750.0
9.398,967.741935483871
9.44,1428.5714285714284
9.478,1578.9473684210527
9.578,600.0
9.694,517.2413793103448
9.912,275.22935779816515
9.956,1363.6363636363637
9.974,3333.3333333333335
10.04,909.090909090909
10.078,1578.9473684210527
10.122,1363.6363636363637
10.204,731.7073170731707
10.398,309.2783505154639
10.496,612.2448979591836
10.574,769.2307692307693
10.682,555.5555555555555
10.762,750.0
10.856,638.2978723404256
11.018,370.3703703703704
11.236,275.22935779816515
11.354,508.4745762711865
11.418,937.5
11.498,750.0
11.578,750.0
11.618,1500.0
11.694,789.4736842105264
11.854,375.0
11.876,2727.2727272727275
11.894,3333.3333333333335
12.032,434.78260869565213
12.056,2500.0
12.102,1304.3478260869565
12.142,1500.0
12.178,1666.6666666666667
12.374,306.1224489795918
12.416,1428.5714285714284
12.574,379.746835443038
12.618,1363.6363636363637
12.738,500.0
12.774,1666.6666666666667
12.802,2142.8571428571427
12.878,789.4736842105264
13.078,300.0
13.178,600.0
13.196,3333.3333333333335
13.336,428.57142857142856
13.456,500.0
13.522,909.090909090909
13.598,789.4736842105264
13.798,300.0
13.854,1071.4285714285713
14.07,277.77777777777777
14.176,566.0377358490566
14.248,833.3333333333334
14.288,1500.0
14.33,1428.5714285714284
14.516,322.5806451612903
14.634,508.4745762711865
14.714,750.0
14.756,1428.5714285714284
14.774,3333.3333333333335
14.894,500.0
14.966,833.3333333333334
15.052,697.6744186046512
15.256,294.11764705882354
15.372,517.2413793103448
15.558,322.5806451612903
15.738,333.33333333333337
15.816,769.2307692307693
16.014,303.030303030303
16.134,500.0
16.456,186.33540372670808
16.472,3750.0
16.538,909.090909090909
16.616,769.2307692307693
16.814,303.030303030303
16.934,500.0
17.132,303.030303030303
17.176,1363.6363636363637
17.296,500.0
17.334,1578.9473684210527
17.414,750.0
17.612,303.030303030303
17.734,491.8032786885246
17.834,600.0
17.914,750.0
17.954,1500.0
18.074,500.0
18.142,882.3529411764705
18.216,810.8108108108108
18.412,306.1224489795918
18.574,370.3703703703704
18.67,625.0
18.814,416.6666666666667
18.896,731.7073170731707
18.938,1428.5714285714284
18.992,1111.111111111111
19.174,329.6703296703297
19.356,329.6703296703297
19.376,3000.0
19.516,428.57142857142856
19.606,666.6666666666667
19.694,681.8181818181819
19.754,1000.0
19.874,500.0
20.052,337.07865168539325
20.154,588.2352941176471
20.256,588.2352941176471
20.334,769.2307692307693
20.412,769.2307692307693
20.62,288.46153846153845
20.696,789.4736842105264
20.812,517.2413793103448
20.834,2727.2727272727275
20.992,379.746835443038
21.06,882.3529411764705
21.132,833.3333333333334
21.232,600.0
21.314,731.7073170731707
21.39,789.4736842105264
21.438,1250.0
21.672,256.4102564102564
21.752,750.0
21.794,1428.5714285714284
21.838,1363.6363636363637
22.032,309.2783505154639
22.234,297.029702970297
22.334,600.0
22.414,750.0
22.456,1428.5714285714284
22.494,1578.9473684210527
22.612,508.4745762711865
22.694,731.7073170731707
22.912,275.22935779816515
23.034,491.8032786885246
23.09,1071.4285714285713
23.176,697.6744186046512
23.356,333.33333333333337
23.516,375.0
23.596,750.0
23.734,434.78260869565213
23.78,1304.3478260869565
23.854,810.8108108108108
24.052,303.030303030303
24.292,250.0
24.432,428.57142857142856
24.51,769.2307692307693
24.594,714.2857142857142
24.792,303.030303030303
24.994,297.029702970297
25.014,3000.0
25.238,267.85714285714283
25.28,1428.5714285714284
25.312,1875.0
25.514,297.029702970297
25.714,300.0
25.736,2727.2727272727275
25.772,1666.6666666666667
25.834,967.741935483871
25.932,612.2448979591836
25.95,3333.3333333333335
25.99,1500.0
26.076,697.6744186046512
26.272,306.1224489795918
26.412,428.57142857142856
26.496,714.2857142857142
26.57,810.8108108108108
26.672,588.2352941176471
26.752,750.0
26.792,1500.0
26.83,1578.9473684210527
27.034,294.11764705882354
27.112,769.2307692307693
27.256,416.6666666666667
27.494,252.10084033613447
27.572,769.2307692307693
27.772,300.0
27.874,588.2352941176471
27.994,500.0
28.152,379.746835443038
28.174,2727.2727272727275
28.228,1111.111111111111
28.314,697.6744186046512
28.39,789.4736842105264
28.492,588.2352941176471
28.512,3000.0
28.634,491.8032786885246
28.714,750.0
28.914,300.0
28.982,882.3529411764705
29.074,652.1739130434783
29.252,337.07865168539325
29.414,370.3703703703704
29.512,612.2448979591836
29.592,750.0
29.652,1000.0
29.746,638.2978723404256
29.836,666.6666666666667
30.014,337.07865168539325
30.172,379.746835443038
30.232,1000.0
30.272,1500.0
30.312,1500.0
30.43,508.4745762711865
30.474,1363.6363636363637
30.516,1428.5714285714284
30.594,769.2307692307693
30.672,769.2307692307693
30.792,500.0
30.87,769.2307692307693
30.892,2727.2727272727275
31.012,500.0
31.086,810.8108108108108
31.212,476.1904761904762
31.24,2142.8571428571427
31.282,1428.5714285714284
31.314,1875.0
31.352,1578.9473684210527
31.392,1500.0
31.516,483.8709677419355
31.67,389.61038961038963
31.732,967.741935483871
31.75,3333.3333333333335
31.774,2500.0
31.854,750.0
31.892,1578.9473684210527
31.928,1666.6666666666667
31.958,2000.0
31.97,5000.0
32.03,1000.0
32.07,1500.0
32.21,428.57142857142856
32.252,1428.5714285714284
32.31,1034.4827586206895
32.394,714.2857142857142
32.432,1578.9473684210527
32.494,967.741935483871
32.512,3333.3333333333335
32.532,3000.0
32.58,1250.0
32.612,1875.0
32.624,5000.0
32.656,1875.0
32.732,789.4736842105264
32.75,3333.3333333333335
32.872,491.8032786885246
32.932,1000.0
32.952,3000.0
32.99,1578.9473684210527
33.056,909.090909090909
33.088,1875.0
33.17,731.7073170731707
33.192,2727.2727272727275
33.238,1304.3478260869565
33.278,1500.0
33.31,1875.0
33.41,600.0
33.514,576.9230769230769
33.57,1071.4285714285713
33.612,1428.5714285714284
33.634,2727.2727272727275
33.672,1578.9473684210527
33.732,1000.0
33.752,3000.0
33.872,500.0
33.89,3333.3333333333335
33.936,1304.3478260869565
33.978,1428.5714285714284
34.012,1764.705882352941
34.072,1000.0
34.112,1500.0
34.21,612.2448979591836
34.334,483.8709677419355
34.352,3333.3333333333335
34.37,3333.3333333333335
34.392,2727.2727272727275
34.41,3333.3333333333335
34.43,3000.0
34.49,1000.0
34.592,588.2352941176471
34.61,3333.3333333333335
34.676,909.090909090909
34.716,1500.0
34.752,1666.6666666666667
34.95,303.030303030303
35.01,1000.0
35.09,750.0
35.112,2727.2727272727275
35.13,3333.3333333333335
35.19,1000.0
35.368,337.07865168539325
35.392,2500.0
35.426,1764.705882352941
35.51,714.2857142857142
35.59,750.0
35.71,500.0
35.812,588.2352941176471
35.85,1578.9473684210527
35.872,2727.2727272727275
35.948,789.4736842105264
36.132,326.0869565217391
36.188,1071.4285714285713
36.272,714.2857142857142
36.472,300.0
36.572,600.0
36.61,1578.9473684210527
36.772,370.3703703703704
36.91,434.78260869565213
36.96,1200.0
37.05,666.6666666666667
37.148,612.2448979591836
37.25,588.2352941176471
37.392,422.5352112676057
37.612,272.72727272727275
37.632,3000.0
37.67,1578.9473684210527
37.712,1428.5714285714284
37.752,1500.0
37.952,300.0
37.99,1578.9473684210527
38.152,370.3703703703704
38.21,1034.4827586206895
38.31,600.0
38.364,1111.111111111111
38.448,714.2857142857142
38.632,326.0869565217391
38.81,337.07865168539325
38.872,967.741935483871
38.91,1578.9473684210527
38.99,750.0
39.064,810.8108108108108
39.15,697.6744186046512
39.35,300.0
39.472,491.8032786885246
39.59,508.4745762711865
39.63,1500.0
39.712,731.7073170731707
39.786,810.8108108108108
39.87,714.2857142857142
40.052,329.6703296703297
40.29,252.10084033613447
40.412,491.8032786885246
40.488,789.4736842105264
40.568,750.0
40.752,326.0869565217391
40.912,375.0
40.972,1000.0
41.13,379.746835443038
41.192,967.741935483871
41.232,1500.0
41.29,1034.4827586206895
41.45,375.0
41.61,375.0
41.69,750.0
41.81,500.0
41.87,1000.0
41.912,1428.5714285714284
41.952,1500.0
42.01,1034.4827586206895
42.148,434.78260869565213
42.31,370.3703703703704
42.37,1000.0
42.492,491.8032786885246
42.558,909.090909090909
42.598,1500.0
42.632,1764.705882352941
42.832,300.0
42.97,434.78260869565213
43.05,750.0
43.212,370.3703703703704
43.272,1000.0
43.312,1500.0
43.35,1578.9473684210527
43.548,303.030303030303
43.692,416.6666666666667
43.77,769.2307692307693
43.83,1000.0
43.912,731.7073170731707
43.984,833.3333333333334
44.07,697.6744186046512
44.25,333.33333333333337
44.35,600.0
44.392,1428.5714285714284
44.492,600.0
44.63,434.78260869565213
44.702,833.3333333333334
44.788,697.6744186046512
44.97,329.6703296703297
45.112,422.5352112676057
45.13,3333.3333333333335
45.19,1000.0
45.21,3000.0
45.348,434.78260869565213
45.428,750.0
45.51,731.7073170731707
45.708,303.030303030303
45.77,967.741935483871
45.83,1000.0
45.89,1000.0
45.95,1000.0
46.01,1000.0
46.11,600.0
46.166,1071.4285714285713
46.252,697.6744186046512
46.33,769.2307692307693
46.432,588.2352941176471
46.51,769.2307692307693
46.59,750.0
46.608,3333.3333333333335
46.67,967.741935483871
46.79,500.0
46.874,714.2857142857142
46.894,3000.0
46.916,2727.2727272727275
46.952,1666.6666666666667
47.112,375.0
47.148,1666.6666666666667
47.188,1500.0
47.208,3000.0
47.23,2727.2727272727275
47.268,1578.9473684210527
47.332,937.5
47.388,1071.4285714285713
47.408,3000.0
47.488,750.0
47.51,2727.2727272727275
47.562,1153.8461538461538
47.652,666.6666666666667
47.832,333.33333333333337
47.99,379.746835443038
48.048,1034.4827586206895
48.19,422.5352112676057
48.208,3333.3333333333335
48.268,1000.0
48.348,750.0
48.43,731.7073170731707
48.532,588.2352941176471
48.688,384.61538461538464
48.728,1500.0
48.788,1000.0
48.93,422.5352112676057
48.988,1034.4827586206895
49.03,1428.5714285714284
49.068,1578.9473684210527
49.27,297.029702970297
49.33,1000.0
49.39,1000.0
49.468,769.2307692307693
49.65,329.6703296703297
49.67,3000.0
49.688,3333.3333333333335
49.728,1500.0
49.808,750.0
50.008,300.0
50.126,508.4745762711865
50.148,2727.2727272727275
50.21,967.741935483871
50.266,1071.4285714285713
50.368,588.2352941176471
50.448,750.0
50.526,769.2307692307693
50.608,731.7073170731707
50.708,600.0
50.73,2727.2727272727275
50.808,769.2307692307693
50.83,2727.2727272727275
50.848,3333.3333333333335
50.95,588.2352941176471
51.07,500.0
51.108,1578.9473684210527
51.15,1428.5714285714284
51.192,1428.5714285714284
51.23,1578.9473684210527
51.308,769.2307692307693
51.388,750.0
51.428,1500.0
51.528,600.0
51.608,750.0
51.648,1500.0
51.77,491.8032786885246
51.788,3333.3333333333335
51.85,967.741935483871
51.89,1500.0
51.928,1578.9473684210527
51.988,1000.0
52.008,3000.0
52.126,508.4745762711865
52.208,731.7073170731707
52.228,3000.0
52.288,1000.0
52.308,3000.0
52.328,3000.0
52.368,1500.0
52.508,428.57142857142856
52.53,2727.2727272727275
52.558,2142.8571428571427
52.596,1578.9473684210527
52.648,1153.8461538461538
52.706,1034.4827586206895
52.726,3000.0
52.83,576.9230769230769
52.968,434.78260869565213
53.008,1500.0
53.028,3000.0
53.048,3000.0
53.068,3000.0
53.088,3000.0
53.206,508.4745762711865
53.23,2500.0
53.248,3333.3333333333335
53.288,1500.0
53.328,1500.0
53.368,1500.0
53.446,769.2307692307693
53.468,2727.2727272727275
53.506,1578.9473684210527
53.548,1428.5714285714284
53.566,3333.3333333333335
53.686,500.0
53.768,731.7073170731707
53.788,3000.0
53.824,1666.6666666666667
53.95,476.1904761904762
53.966,3750.0
53.988,2727.2727272727275
54.016,2142.8571428571427
54.108,652.1739130434783
54.208,600.0
54.268,1000.0
54.288,3000.0
54.308,3000.0
54.368,1000.0
54.408,1500.0
54.428,3000.0
54.468,1500.0
54.508,1500.0
54.528,3000.0
54.666,434.78260869565213
54.688,2727.2727272727275
54.722,1764.705882352941
54.806,714.2857142857142
54.868,967.741935483871
54.948,750.0
54.986,1578.9473684210527
55.068,731.7073170731707
55.086,3333.3333333333335
55.144,1034.4827586206895
55.166,2727.2727272727275
55.186,3000.0
55.246,1000.0
55.368,491.8032786885246
55.388,3000.0
55.426,1578.9473684210527
55.466,1500.0
55.506,1500.0
55.586,750.0
55.65,937.5
55.706,1071.4285714285713
55.808,588.2352941176471
55.848,1500.0
55.866,3333.3333333333335
55.928,967.741935483871
55.946,3333.3333333333335
55.966,3000.0
56.004,1578.9473684210527
56.084,750.0
56.108,2500.0
56.126,3333.3333333333335
56.158,1875.0
56.248,666.6666666666667
56.366,508.4745762711865
56.426,1000.0
56.446,3000.0
56.566,500.0
56.586,3000.0
56.628,1428.5714285714284
56.644,3750.0
56.666,2727.2727272727275
56.688,2727.2727272727275
56.708,3000.0
56.728,3000.0
56.75,2727.2727272727275
56.846,625.0
56.866,3000.0
56.906,1500.0
56.946,1500.0
56.986,1500.0
57.044,1034.4827586206895
57.126,731.7073170731707
57.184,1034.4827586206895
57.226,1428.5714285714284
57.248,2727.2727272727275
57.304,1071.4285714285713
57.328,2500.0
57.346,3333.3333333333335
57.368,2727.2727272727275
57.386,3333.3333333333335
57.406,3000.0
57.446,1500.0
57.566,500.0
57.584,3333.3333333333335
57.608,2500.0
57.648,1500.0
57.69,1428.5714285714284
57.726,1666.6666666666667
57.766,1500.0
57.784,3333.3333333333335
57.868,714.2857142857142
57.906,1578.9473684210527
57.922,3750.0
57.986,937.5
58.008,2727.2727272727275
58.028,3000.0
58.046,3333.3333333333335
58.086,1500.0
58.108,2727.2727272727275
58.146,1578.9473684210527
58.168,2727.2727272727275
58.226,1034.4827586206895
58.348,491.8032786885246
58.366,3333.3333333333335
58.386,3000.0
58.416,2000.0
58.504,681.8181818181819
58.566,967.741935483871
58.604,1578.9473684210527
58.686,731.7073170731707
58.746,1000.0
58.768,2727.2727272727275
58.788,3000.0
58.808,3000.0
58.824,3750.0
58.846,2727.2727272727275
58.884,1578.9473684210527
58.908,2500.0
58.946,1578.9473684210527
58.964,3333.3333333333335
59.002,1578.9473684210527
59.088,697.6744186046512
59.106,3333.3333333333335
59.158,1153.8461538461538
59.244,697.6744186046512
59.284,1500.0
59.366,731.7073170731707
59.386,3000.0
59.404,3333.3333333333335
59.426,2727.2727272727275
59.468,1428.5714285714284
59.504,1666.6666666666667
59.524,3000.0
59.548,2500.0
59.586,1578.9473684210527
59.626,1500.0
59.666,1500.0
59.704,1578.9473684210527
59.726,2727.2727272727275
59.788,967.741935483871
59.806,3333.3333333333335
59.826,3000.0
59.844,3333.3333333333335
59.882,1578.9473684210527
59.922,1500.0
59.966,1363.6363636363637
59.986,3000.0
60.026,1500.0
60.044,3333.3333333333335
60.104,1000.0
60.126,2727.2727272727275
60.166,1500.0
60.206,1500.0
60.228,2727.2727272727275
60.244,3750.0
60.266,2727.2727272727275
60.326,1000.0
60.344,3333.3333333333335
60.386,1428.5714285714284
60.406,3000.0
60.444,1578.9473684210527
60.524,750.0
60.566,1428.5714285714284
60.602,1666.6666666666667
60.642,1500.0
60.686,1363.6363636363637
60.744,1034.4827586206895
60.766,2727.2727272727275
60.844,769.2307692307693
60.884,1500.0
60.968,714.2857142857142
60.986,3333.3333333333335
61.004,3333.3333333333335
61.022,3333.3333333333335
61.064,1428.5714285714284
61.108,1363.6363636363637
61.168,1000.0
61.206,1578.9473684210527
61.288,731.7073170731707
61.306,3333.3333333333335
61.324,3333.3333333333335
61.364,1500.0
61.444,750.0
61.526,731.7073170731707
61.562,1666.6666666666667
61.606,1363.6363636363637
61.644,1578.9473684210527
61.766,491.8032786885246
61.788,2727.2727272727275
61.824,1666.6666666666667
61.866,1428.5714285714284
61.884,3333.3333333333335
61.904,3000.0
61.922,3333.3333333333335
62.026,576.9230769230769
62.066,1500.0
62.108,1428.5714285714284
62.15,1428.5714285714284
62.188,1578.9473684210527
62.204,3750.0
62.248,1363.6363636363637
62.344,625.0
62.384,1500.0
62.426,1428.5714285714284
62.446,3000.0
62.486,1500.0
62.546,1000.0
62.566,3000.0
62.584,3333.3333333333335
62.604,3000.0
62.626,2727.2727272727275
62.646,3000.0
62.746,600.0
62.784,1578.9473684210527
62.802,3333.3333333333335
62.834,1875.0
62.874,1500.0
62.906,1875.0
62.966,1000.0
62.986,3000.0
63.064,769.2307692307693
63.106,1428.5714285714284
63.122,3750.0
63.142,3000.0
63.166,2500.0
63.186,3000.0
63.246,1000.0
63.264,3333.3333333333335
63.324,1000.0
63.366,1428.5714285714284
63.406,1500.0
63.426,3000.0
63.446,3000.0
63.506,1000.0
63.524,3333.3333333333335
63.548,2500.0
63.566,3333.3333333333335
63.606,1500.0
63.646,1500.0
63.684,1578.9473684210527
63.726,1428.5714285714284
63.742,3750.0
63.764,2727.2727272727275
63.844,750.0
63.888,1363.6363636363637
63.924,1666.6666666666667
63.944,3000.0
64.044,600.0
64.064,3000.0
64.084,3000.0
64.104,3000.0
64.122,3333.3333333333335
64.146,2500.0
64.166,3000.0
64.186,3000.0
64.204,3333.3333333333335
64.226,2727.2727272727275
64.346,500.0
64.384,1578.9473684210527
64.424,1500.0
64.466,1428.5714285714284
64.544,769.2307692307693
64.608,937.5
64.662,1111.111111111111
64.706,1363.6363636363637
64.724,3333.3333333333335
64.746,2727.2727272727275
64.786,1500.0
64.804,3333.3333333333335
64.824,3000.0
64.846,2727.2727272727275
64.886,1500.0
64.906,3000.0
64.964,1034.4827586206895
65.066,588.2352941176471
65.084,3333.3333333333335
65.106,2727.2727272727275
65.15,1363.6363636363637
65.19,1500.0
65.224,1764.705882352941
65.264,1500.0
65.286,2727.2727272727275
65.306,3000.0
65.386,750.0
65.406,3000.0
65.424,3333.3333333333335
65.504,750.0
65.526,2727.2727272727275
65.544,3333.3333333333335
65.586,1428.5714285714284
65.604,3333.3333333333335
65.622,3333.3333333333335
65.644,2727.2727272727275
65.664,3000.0
65.682,3333.3333333333335
65.704,2727.2727272727275
65.824,500.0
65.844,3000.0
65.866,2727.2727272727275
65.882,3750.0
65.912,2000.0
65.952,1500.0
65.986,1764.705882352941
66.066,750.0
66.106,1500.0
66.146,1500.0
66.166,3000.0
66.186,3000.0
66.204,3333.3333333333335
66.262,1034.4827586206895
66.284,2727.2727272727275
66.326,1428.5714285714284
66.346,3000.0
66.364,3333.3333333333335
66.386,2727.2727272727275
66.422,1666.6666666666667
66.446,2500.0
66.462,3750.0
66.504,1428.5714285714284
66.586,731.7073170731707
66.604,3333.3333333333335
66.624,3000.0
66.66,1666.6666666666667
66.74,750.0
66.782,1428.5714285714284
66.804,2727.2727272727275
66.844,1500.0
66.884,1500.0
66.906,2727.2727272727275
66.942,1666.6666666666667
66.984,1428.5714285714284
67.006,2727.2727272727275
67.026,3000.0
67.066,1500.0
67.084,3333.3333333333335
67.124,1500.0
67.166,1428.5714285714284
67.186,3000.0
67.204,3333.3333333333335
67.302,612.2448979591836
67.322,3000.0
67.384,967.741935483871
67.424,1500.0
67.466,1428.5714285714284
67.524,1034.4827586206895
67.622,612.2448979591836
67.662,1500.0
67.722,1000.0
67.744,2727.2727272727275
67.762,3333.3333333333335
67.786,2500.0
67.804,3333.3333333333335
67.824,3000.0
67.844,3000.0
67.886,1428.5714285714284
67.906,3000.0
67.922,3750.0
68.004,731.7073170731707
68.024,3000.0
68.042,3333.3333333333335
68.064,2727.2727272727275
68.108,1363.6363636363637
68.148,1500.0
68.186,1578.9473684210527
68.202,3750.0
68.282,750.0
68.346,937.5
68.384,1578.9473684210527
68.422,1578.9473684210527
68.442,3000.0
68.466,2500.0
68.484,3333.3333333333335
68.506,2727.2727272727275
68.544,1578.9473684210527
68.604,1000.0
68.622,3333.3333333333335
68.644,2727.2727272727275
68.746,588.2352941176471
68.762,3750.0
68.78,3333.3333333333335
68.802,2727.2727272727275
68.83,2142.8571428571427
68.924,638.2978723404256
68.962,1578.9473684210527
68.982,3000.0
69.044,967.741935483871
69.086,1428.5714285714284
69.104,3333.3333333333335
69.184,750.0
69.224,1500.0
69.242,3333.3333333333335
69.302,1000.0
69.324,2727.2727272727275
69.342,3333.3333333333335
69.362,3000.0
69.384,2727.2727272727275
69.484,600.0
69.504,3000.0
69.524,3000.0
69.566,1428.5714285714284
69.606,1500.0
69.644,1578.9473684210527
69.682,1578.9473684210527
69.782,600.0
69.824,1428.5714285714284
69.844,3000.0
69.864,3000.0
69.904,1500.0
69.924,3000.0
69.944,3000.0
69.962,3333.3333333333335
69.982,3000.0
70.002,3000.0
70.046,1363.6363636363637
70.064,3333.3333333333335
70.082,3333.3333333333335
70.102,3000.0
70.124,2727.2727272727275
70.144,3000.0
70.178,1764.705882352941
70.286,555.5555555555555
70.3,4285.714285714285
70.336,1666.6666666666667
70.422,697.6744186046512
70.542,500.0
70.56,3333.3333333333335
70.604,1363.6363636363637
70.644,1500.0
70.664,3000.0
70.682,3333.3333333333335
70.742,1000.0
70.782,1500.0
70.802,3000.0
70.826,2500.0
70.844,3333.3333333333335
70.862,3333.3333333333335
70.882,3000.0
70.902,3000.0
70.982,750.0
71.004,2727.2727272727275
71.022,3333.3333333333335
71.062,1500.0
71.104,1428.5714285714284
71.146,1428.5714285714284
71.184,1578.9473684210527
71.202,3333.3333333333335
71.224,2727.2727272727275
71.242,3333.3333333333335
71.284,1428.5714285714284
71.304,3000.0
71.322,3333.3333333333335
71.342,3000.0
71.4,1034.4827586206895
71.424,2500.0
71.44,3750.0
71.462,2727.2727272727275
71.484,2727.2727272727275
71.504,3000.0
71.544,1500.0
71.562,3333.3333333333335
71.584,2727.2727272727275
71.606,2727.2727272727275
71.642,1666.6666666666667
71.724,731.7073170731707
71.762,1578.9473684210527
71.798,1666.6666666666667
71.84,1428.5714285714284
71.882,1428.5714285714284
71.922,1500.0
71.94,3333.3333333333335
72.024,714.2857142857142
72.042,3333.3333333333335
72.084,1428.5714285714284
72.142,1034.4827586206895
72.164,2727.2727272727275
72.204,1500.0
72.222,3333.3333333333335
72.302,750.0
72.322,3000.0
72.344,2727.2727272727275
72.362,3333.3333333333335
72.402,1500.0
72.482,750.0
72.502,3000.0
72.522,3000.0
72.558,1666.6666666666667
72.642,714.2857142857142
72.704,967.741935483871
72.72,3750.0
72.762,1428.5714285714284
72.782,3000.0
72.802,3000.0
72.844,1428.5714285714284
72.904,1000.0
72.922,3333.3333333333335
72.944,2727.2727272727275
72.98,1666.6666666666667
73.004,2500.0
73.042,1578.9473684210527
73.084,1428.5714285714284
73.104,3000.0
73.124,3000.0
73.14,3750.0
73.162,2727.2727272727275
73.186,2500.0
73.264,769.2307692307693
73.282,3333.3333333333335
73.298,3750.0
73.344,1304.3478260869565
73.386,1428.5714285714284
73.424,1578.9473684210527
73.48,1071.4285714285713
73.5,3000.0
73.542,1428.5714285714284
73.562,3000.0
73.584,2727.2727272727275
73.622,1578.9473684210527
73.684,967.741935483871
73.704,3000.0
73.722,3333.3333333333335
73.74,3333.3333333333335
73.762,2727.2727272727275
73.782,3000.0
73.804,2727.2727272727275
73.824,3000.0
73.86,1666.6666666666667
73.882,2727.2727272727275
73.92,1578.9473684210527
74.006,697.6744186046512
74.022,3750.0
74.042,3000.0
74.078,1666.6666666666667
74.12,1428.5714285714284
74.164,1363.6363636363637
74.224,1000.0
74.24,3750.0
74.278,1578.9473684210527
74.302,2500.0
74.364,967.741935483871
74.42,1071.4285714285713
74.442,2727.2727272727275
74.464,2727.2727272727275
74.484,3000.0
74.502,3333.3333333333335
74.544,1428.5714285714284
74.6,1071.4285714285713
74.744,416.6666666666667
74.76,3750.0
74.782,2727.2727272727275
74.826,1363.6363636363637
74.864,1578.9473684210527
74.904,1500.0
74.962,1034.4827586206895
74.984,2727.2727272727275
75.0,3750.0
75.042,1428.5714285714284
75.1,1034.4827586206895
75.162,967.741935483871
75.224,967.741935483871
75.24,3750.0
75.282,1428.5714285714284
75.3,3333.3333333333335
75.32,3000.0
75.36,1500.0
75.382,2727.2727272727275
75.402,3000.0
75.422,3000.0
75.502,750.0
75.52,3333.3333333333335
75.54,3000.0
75.578,1578.9473684210527
75.66,731.7073170731707
75.72,1000.0
75.74,3000.0
75.76,3000.0
75.804,1363.6363636363637
75.842,1578.9473684210527
75.862,3000.0
75.92,1034.4827586206895
75.94,3000.0
75.962,2727.2727272727275
75.984,2727.2727272727275
76.0,3750.0
76.038,1578.9473684210527
76.062,2500.0
76.084,2727.2727272727275
76.22,441.17647058823525
76.242,2727.2727272727275
76.264,2727.2727272727275
76.3,1666.6666666666667
76.342,1428.5714285714284
76.382,1500.0
76.4,3333.3333333333335
76.5,600.0
76.564,937.5
76.582,3333.3333333333335
76.622,1500.0
76.64,3333.3333333333335
76.662,2727.2727272727275
76.682,3000.0
76.722,1500.0
76.744,2727.2727272727275
76.762,3333.3333333333335
76.782,3000.0
76.804,2727.2727272727275
76.84,1666.6666666666667
76.862,2727.2727272727275
76.94,769.2307692307693
76.962,2727.2727272727275
77.022,1000.0
77.062,1500.0
77.104,1428.5714285714284
77.162,1034.4827586206895
77.182,3000.0
77.222,1500.0
77.282,1000.0
77.304,2727.2727272727275
77.362,1034.4827586206895
77.404,1428.5714285714284
77.422,3333.3333333333335
77.442,3000.0
77.52,769.2307692307693
77.542,2727.2727272727275
77.564,2727.2727272727275
77.686,491.8032786885246
77.704,3333.3333333333335
77.72,3750.0
77.742,2727.2727272727275
77.772,2000.0
77.844,833.3333333333334
77.862,3333.3333333333335
77.902,1500.0
77.922,3000.0
77.938,3750.0
77.962,2500.0
78.04,769.2307692307693
78.058,3333.3333333333335
78.122,937.5
78.142,3000.0
78.162,3000.0
78.182,3000.0
78.24,1034.4827586206895
78.262,2727.2727272727275
78.302,1500.0
78.322,3000.0
78.34,3333.3333333333335
78.378,1578.9473684210527
78.444,909.090909090909
78.46,3750.0
78.482,2727.2727272727275
78.502,3000.0
78.536,1764.705882352941
78.622,697.6744186046512
78.722,600.0
78.82,612.2448979591836
78.9,750.0
78.922,2727.2727272727275
78.94,3333.3333333333335
78.982,1428.5714285714284
79.022,1500.0
79.04,3333.3333333333335
79.064,2500.0
79.084,3000.0
79.222,434.78260869565213
79.26,1578.9473684210527
79.306,1304.3478260869565
79.348,1428.5714285714284
79.382,1764.705882352941
79.522,428.57142857142856
79.542,3000.0
79.564,2727.2727272727275
79.582,3333.3333333333335
79.624,1428.5714285714284
79.66,1666.6666666666667
79.702,1428.5714285714284
79.724,2727.2727272727275
79.762,1578.9473684210527
79.78,3333.3333333333335
79.82,1500.0
79.938,508.4745762711865
79.98,1428.5714285714284
80.026,1304.3478260869565
80.07,1363.6363636363637
80.122,1153.8461538461538
80.14,3333.3333333333335
80.16,3000.0
80.182,2727.2727272727275
80.198,3750.0
80.218,3000.0
80.26,1428.5714285714284
80.28,3000.0
80.302,2727.2727272727275
80.322,3000.0
80.362,1500.0
80.38,3333.3333333333335
80.402,2727.2727272727275
80.422,3000.0
80.462,1500.0
80.482,3000.0
80.5,3333.3333333333335
80.52,3000.0
80.562,1428.5714285714284
80.578,3750.0
80.616,1578.9473684210527
80.682,909.090909090909
80.742,1000.0
80.772,2000.0
80.862,666.6666666666667
80.88,3333.3333333333335
80.9,3000.0
80.92,3000.0
80.94,3000.0
80.982,1428.5714285714284
81.002,3000.0
81.022,3000.0
81.042,3000.0
81.062,3000.0
81.122,1000.0
81.142,3000.0
81.162,3000.0
81.178,3750.0
81.2,2727.2727272727275
81.22,3000.0
81.24,3000.0
81.264,2500.0
81.28,3750.0
81.302,2727.2727272727275
81.342,1500.0
81.4,1034.4827586206895
81.462,967.741935483871
81.502,1500.0
81.52,3333.3333333333335
81.556,1666.6666666666667
81.644,681.8181818181819
81.72,789.4736842105264
81.74,3000.0
81.824,714.2857142857142
81.842,3333.3333333333335
81.92,769.2307692307693
81.942,2727.2727272727275
81.98,1578.9473684210527
82.022,1428.5714285714284
82.06,1578.9473684210527
82.082,2727.2727272727275
82.12,1578.9473684210527
82.144,2500.0
82.158,4285.714285714285
82.182,2500.0
82.26,769.2307692307693
82.278,3333.3333333333335
82.3,2727.2727272727275
82.344,1363.6363636363637
82.384,1500.0
82.424,1500.0
82.48,1071.4285714285713
82.502,2727.2727272727275
82.52,3333.3333333333335
82.56,1500.0
82.582,2727.2727272727275
82.602,3000.0
82.622,3000.0
82.718,625.0
82.76,1428.5714285714284
82.782,2727.2727272727275
82.8,3333.3333333333335
82.82,3000.0
82.84,3000.0
82.86,3000.0
82.882,2727.2727272727275
82.902,3000.0
82.938,1666.6666666666667
83.024,697.6744186046512
83.042,3333.3333333333335
83.06,3333.3333333333335
83.098,1578.9473684210527
83.138,1500.0
83.184,1304.3478260869565
83.242,1034.4827586206895
83.258,3750.0
83.362,576.9230769230769
83.378,3750.0
83.4,2727.2727272727275
83.422,2727.2727272727275
83.438,3750.0
83.46,2727.2727272727275
83.48,3000.0
83.502,2727.2727272727275
83.522,3000.0
83.562,1500.0
83.6,1578.9473684210527
83.618,3333.3333333333335
83.64,2727.2727272727275
83.662,2727.2727272727275
83.68,3333.3333333333335
83.702,2727.2727272727275
83.782,750.0
83.802,3000.0
83.818,3750.0
83.862,1363.6363636363637
83.902,1500.0
83.942,1500.0
84.002,1000.0
84.02,3333.3333333333335
84.078,1034.4827586206895
84.142,937.5
84.2,1034.4827586206895
84.24,1500.0
84.26,3000.0
84.284,2500.0
84.302,3333.3333333333335
84.318,3750.0
84.34,2727.2727272727275
84.398,1034.4827586206895
84.458,1000.0
84.522,937.5
84.54,3333.3333333333335
84.56,3000.0
84.582,2727.2727272727275
84.616,1764.705882352941
84.702,697.6744186046512
84.74,1578.9473684210527
84.76,3000.0
84.78,3000.0
84.818,1578.9473684210527
84.882,937.5
84.9,3333.3333333333335
84.92,3000.0
84.962,1428.5714285714284
84.978,3750.0
85.022,1363.6363636363637
85.042,3000.0
85.098,1071.4285714285713
85.12,2727.2727272727275
85.14,3000.0
85.242,588.2352941176471
85.262,3000.0
85.28,3333.3333333333335
85.298,3333.3333333333335
85.332,1764.705882352941
85.422,666.6666666666667
85.46,1578.9473684210527
85.48,3000.0
85.52,1500.0
85.54,3000.0
85.58,1500.0
85.622,1428.5714285714284
85.638,3750.0
85.68,1428.5714285714284
85.74,1000.0
85.76,3000.0
85.78,3000.0
85.842,967.741935483871
85.86,3333.3333333333335
85.88,3000.0
85.98,600.0
86.022,1428.5714285714284
86.04,3333.3333333333335
86.068,2142.8571428571427
86.11,1428.5714285714284
86.162,1153.8461538461538
86.178,3750.0
86.2,2727.2727272727275
86.22,3000.0
86.238,3333.3333333333335
86.282,1363.6363636363637
86.34,1034.4827586206895
86.38,1500.0
86.398,3333.3333333333335
86.444,1304.3478260869565
86.462,3333.3333333333335
86.48,3333.3333333333335
86.5,3000.0
86.522,2727.2727272727275
86.542,3000.0
86.558,3750.0
86.58,2727.2727272727275
86.72,428.57142857142856
86.76,1500.0
86.78,3000.0
86.81,2000.0
86.88,857.1428571428571
86.916,1666.6666666666667
86.938,2727.2727272727275
86.958,3000.0
86.978,3000.0
87.038,1000.0
87.082,1363.6363636363637
87.162,750.0
87.18,3333.3333333333335
87.22,1500.0
87.24,3000.0
87.282,1428.5714285714284
87.3,3333.3333333333335
87.32,3000.0
87.338,3333.3333333333335
87.362,2500.0
87.44,769.2307692307693
87.46,3000.0
87.482,2727.2727272727275
87.544,967.741935483871
87.586,1428.5714285714284
87.622,1666.6666666666667
87.642,3000.0
87.658,3750.0
87.678,3000.0
87.7,2727.2727272727275
87.72,3000.0
87.78,1000.0
87.8,3000.0
87.818,3333.3333333333335
87.902,714.2857142857142
87.938,1666.6666666666667
87.962,2500.0
88.0,1578.9473684210527
88.022,2727.2727272727275
88.04,3333.3333333333335
88.082,1428.5714285714284
88.102,3000.0
88.2,612.2448979591836
88.218,3333.3333333333335
88.238,3000.0
88.292,1111.111111111111
88.362,857.1428571428571
88.38,3333.3333333333335
88.402,2727.2727272727275
88.46,1034.4827586206895
88.562,588.2352941176471
88.578,3750.0
88.618,1500.0
88.662,1363.6363636363637
88.7,1578.9473684210527
88.718,3333.3333333333335
88.758,1500.0
88.782,2500.0
88.802,3000.0
88.82,3333.3333333333335
88.862,1428.5714285714284
88.878,3750.0
88.98,588.2352941176471
89.0,3000.0
89.02,3000.0
89.04,3000.0
89.076,1666.6666666666667
89.162,697.6744186046512
89.18,3333.3333333333335
89.218,1578.9473684210527
89.238,3000.0
89.258,3000.0
89.278,3000.0
89.302,2500.0
89.362,1000.0
89.378,3750.0
89.418,1500.0
89.478,1000.0
89.52,1428.5714285714284
89.558,1578.9473684210527
89.578,3000.0
89.598,3000.0
89.62,2727.2727272727275
89.66,1500.0
89.68,3000.0
89.78,600.0
89.8,3000.0
89.866,909.090909090909
89.908,1428.5714285714284
89.94,1875.0
90.002,967.741935483871
90.016,4285.714285714285
90.038,2727.2727272727275
90.162,483.8709677419355
90.18,3333.3333333333335
90.196,3750.0
90.22,2500.0
90.256,1666.6666666666667
90.28,2500.0
90.298,3333.3333333333335
90.342,1363.6363636363637
90.36,3333.3333333333335
90.38,3000.0
90.4,3000.0
90.418,3333.3333333333335
90.52,588.2352941176471
90.538,3333.3333333333335
90.56,2727.2727272727275
90.58,3000.0
90.612,1875.0
90.7,681.8181818181819
90.738,1578.9473684210527
90.76,2727.2727272727275
90.78,3000.0
90.842,967.741935483871
90.898,1071.4285714285713
90.96,967.741935483871
90.98,3000.0
91.002,2727.2727272727275
91.02,3333.3333333333335
91.036,3750.0
91.06,2500.0
91.076,3750.0
91.1,2500.0
91.118,3333.3333333333335
91.14,2727.2727272727275
91.162,2727.2727272727275
91.302,428.57142857142856
91.32,3333.3333333333335
91.338,3333.3333333333335
91.368,2000.0
91.408,1500.0
91.442,1764.705882352941
91.502,1000.0
91.522,3000.0
91.538,3750.0
91.558,3000.0
91.582,2500.0
91.658,789.4736842105264
91.7,1428.5714285714284
91.718,3333.3333333333335
91.742,2500.0
91.762,3000.0
91.78,3333.3333333333335
91.798,3333.3333333333335
91.858,1000.0
91.884,2307.6923076923076
91.9,3750.0
91.92,3000.0
91.94,3000.0
91.958,3333.3333333333335
92.056,612.2448979591836
92.078,2727.2727272727275
92.116,1578.9473684210527
92.2,714.2857142857142
92.258,1034.4827586206895
92.338,750.0
92.376,1578.9473684210527
92.4,2500.0
92.478,769.2307692307693
92.502,2500.0
92.52,3333.3333333333335
92.54,3000.0
92.58,1500.0
92.62,1500.0
92.638,3333.3333333333335
92.662,2500.0
92.76,612.2448979591836
92.78,3000.0
92.798,3333.3333333333335
92.846,1250.0
92.938,652.1739130434783
92.96,2727.2727272727275
92.982,2727.2727272727275
92.998,3750.0
93.018,3000.0
93.062,1363.6363636363637
93.078,3750.0
93.12,1428.5714285714284
93.14,3000.0
93.178,1578.9473684210527
93.2,2727.2727272727275
93.224,2500.0
93.24,3750.0
93.26,3000.0
93.278,3333.3333333333335
93.298,3000.0
93.34,1428.5714285714284
93.362,2727.2727272727275
93.478,517.2413793103448
93.496,3333.3333333333335
93.518,2727.2727272727275
93.56,1428.5714285714284
93.6,1500.0
93.642,1428.5714285714284
93.658,3750.0
93.68,2727.2727272727275
93.7,3000.0
93.718,3333.3333333333335
93.738,3000.0
93.78,1428.5714285714284
93.8,3000.0
93.838,1578.9473684210527
93.96,491.8032786885246
93.976,3750.0
93.998,2727.2727272727275
94.018,3000.0
94.038,3000.0
94.06,2727.2727272727275
94.098,1578.9473684210527
94.18,731.7073170731707
94.198,3333.3333333333335
94.218,3000.0
94.238,3000.0
94.288,1200.0
94.378,666.6666666666667
94.438,1000.0
94.458,3000.0
94.476,3333.3333333333335
94.518,1428.5714285714284
94.56,1428.5714285714284
94.578,3333.3333333333335
94.64,967.741935483871
94.658,3333.3333333333335
94.698,1500.0
94.718,3000.0
94.736,3333.3333333333335
94.76,2500.0
94.776,3750.0
94.8,2500.0
94.82,3000.0
94.86,1500.0
94.94,750.0
94.958,3333.3333333333335
94.976,3333.3333333333335
95.022,1304.3478260869565
95.064,1428.5714285714284
95.102,1578.9473684210527
95.116,4285.714285714285
95.138,2727.2727272727275
95.158,3000.0
95.196,1578.9473684210527
95.218,2727.2727272727275
95.236,3333.3333333333335
95.28,1363.6363636363637
95.3,3000.0
95.36,1000.0
95.378,3333.3333333333335
95.398,3000.0
95.416,3333.3333333333335
95.436,3000.0
95.456,3000.0
95.502,1304.3478260869565
95.518,3750.0
95.542,2500.0
95.558,3750.0
95.66,588.2352941176471
95.678,3333.3333333333335
95.698,3000.0
95.742,1363.6363636363637
95.784,1428.5714285714284
95.82,1666.6666666666667
95.838,3333.3333333333335
95.858,3000.0
95.88,2727.2727272727275
95.898,3333.3333333333335
95.938,1500.0
95.958,3000.0
95.978,3000.0
96.018,1500.0
96.116,612.2448979591836
96.138,2727.2727272727275
96.196,1034.4827586206895
96.22,2500.0
96.238,3333.3333333333335
96.258,3000.0
96.28,2727.2727272727275
96.32,1500.0
96.42,600.0
96.48,1000.0
96.52,1500.0
96.556,1666.6666666666667
96.638,731.7073170731707
96.74,588.2352941176471
96.754,4285.714285714285
96.86,566.0377358490566
96.9,1500.0
96.918,3333.3333333333335
96.938,3000.0
96.98,1428.5714285714284
96.998,3333.3333333333335
97.036,1578.9473684210527
97.056,3000.0
97.078,2727.2727272727275
97.156,769.2307692307693
97.178,2727.2727272727275
97.198,3000.0
97.238,1500.0
97.28,1428.5714285714284
97.318,1578.9473684210527
97.378,1000.0
97.4,2727.2727272727275
97.48,750.0
97.498,3333.3333333333335
97.518,3000.0
97.58,967.741935483871
97.598,3333.3333333333335
97.618,3000.0
97.64,2727.2727272727275
97.658,3333.3333333333335
97.678,3000.0
97.696,3333.3333333333335
97.718,2727.2727272727275
97.74,2727.2727272727275
97.76,3000.0
97.778,3333.3333333333335
97.798,3000.0
97.836,1578.9473684210527
97.86,2500.0
97.918,1034.4827586206895
97.94,2727.2727272727275
97.96,3000.0
97.994,1764.705882352941
98.036,1428.5714285714284
98.078,1428.5714285714284
98.116,1578.9473684210527
98.138,2727.2727272727275
98.158,3000.0
98.196,1578.9473684210527
98.218,2727.2727272727275
98.278,1000.0
98.34,967.741935483871
98.378,1578.9473684210527
98.416,1578.9473684210527
98.458,1428.5714285714284
98.48,2727.2727272727275
98.498,3333.3333333333335
98.52,2727.2727272727275
98.54,3000.0
98.558,3333.3333333333335
98.596,1578.9473684210527
98.66,937.5
98.696,1666.6666666666667
98.752,1071.4285714285713
98.838,697.6744186046512
98.88,1428.5714285714284
98.936,1071.4285714285713
98.956,3000.0
99.038,731.7073170731707
99.118,750.0
99.14,2727.2727272727275
99.156,3750.0
99.178,2727.2727272727275
99.2,2727.2727272727275
99.216,3750.0
99.24,2500.0
99.278,1578.9473684210527
99.296,3333.3333333333335
99.316,3000.0
99.336,3000.0
99.358,2727.2727272727275
99.438,750.0
99.48,1428.5714285714284
99.52,1500.0
99.56,1500.0
99.594,1764.705882352941
99.676,731.7073170731707
99.698,2727.2727272727275
99.738,1500.0
99.798,1000.0
99.876,769.2307692307693
99.898,2727.2727272727275
99.916,3333.3333333333335
99.938,2727.2727272727275
99.958,3000.0
99.974,3750.0
99.998,2500.0
100.016,3333.3333333333335
100.04,2500.0
100.058,3333.3333333333335
100.078,3000.0
100.118,1500.0
100.196,769.2307692307693
100.216,3000.0
100.238,2727.2727272727275
100.274,1666.6666666666667
100.316,1428.5714285714284
100.358,1428.5714285714284
100.394,1666.6666666666667
100.418,2500.0
100.438,3000.0
100.458,3000.0
100.476,3333.3333333333335
100.516,1500.0
100.536,3000.0
100.558,2727.2727272727275
100.598,1500.0
100.618,3000.0
100.636,3333.3333333333335
100.656,3000.0
100.678,2727.2727272727275
100.698,3000.0
100.718,3000.0
100.756,1578.9473684210527
100.776,3000.0
100.796,3000.0
100.818,2727.2727272727275
100.858,1500.0
100.938,750.0
100.954,3750.0
100.978,2500.0
101.012,1764.705882352941
101.096,714.2857142857142
101.116,3000.0
101.136,3000.0
101.158,2727.2727272727275
101.256,612.2448979591836
101.294,1578.9473684210527
101.398,576.9230769230769
101.418,3000.0
101.456,1578.9473684210527
101.476,3000.0
101.498,2727.2727272727275
101.514,3750.0
101.554,1500.0
101.594,1500.0
101.678,714.2857142857142
101.696,3333.3333333333335
101.716,3000.0
101.748,1875.0
101.818,857.1428571428571
101.836,3333.3333333333335
101.856,3000.0
101.892,1666.6666666666667
101.916,2500.0
101.976,1000.0
102.018,1428.5714285714284
102.096,769.2307692307693
102.118,2727.2727272727275
102.136,3333.3333333333335
102.158,2727.2727272727275
102.174,3750.0
102.214,1500.0
102.236,2727.2727272727275
102.256,3000.0
102.276,3000.0
102.298,2727.2727272727275
102.318,3000.0
102.414,625.0
102.438,2500.0
102.454,3750.0
102.498,1363.6363636363637
102.54,1428.5714285714284
102.578,1578.9473684210527
102.594,3750.0
102.618,2500.0
102.636,3333.3333333333335
102.654,3333.3333333333335
102.696,1428.5714285714284
102.716,3000.0
102.754,1578.9473684210527
102.776,2727.2727272727275
102.816,1500.0
102.878,967.741935483871
102.896,3333.3333333333335
102.916,3000.0
102.934,3333.3333333333335
102.952,3333.3333333333335
102.972,3000.0
102.998,2307.6923076923076
103.036,1578.9473684210527
103.056,3000.0
103.136,750.0
103.158,2727.2727272727275
103.176,3333.3333333333335
103.214,1578.9473684210527
103.24,2307.6923076923076
103.282,1428.5714285714284
103.316,1764.705882352941
103.354,1578.9473684210527
103.372,3333.3333333333335
103.394,2727.2727272727275
103.436,1428.5714285714284
103.476,1500.0
103.498,2727.2727272727275
103.518,3000.0
103.594,789.4736842105264
103.612,3333.3333333333335
103.636,2500.0
103.658,2727.2727272727275
103.676,3333.3333333333335
103.696,3000.0
103.718,2727.2727272727275
103.736,3333.3333333333335
103.774,1578.9473684210527
103.798,2500.0
103.816,3333.3333333333335
103.834,3333.3333333333335
103.856,2727.2727272727275
103.976,500.0
104.014,1578.9473684210527
104.054,1500.0
104.094,1500.0
104.138,1363.6363636363637
104.194,1071.4285714285713
104.216,2727.2727272727275
104.232,3750.0
104.256,2500.0
104.294,1578.9473684210527
104.374,750.0
104.394,3000.0
104.416,2727.2727272727275
104.456,1500.0
104.494,1578.9473684210527
104.514,3000.0
104.536,2727.2727272727275
104.556,3000.0
104.572,3750.0
104.614,1428.5714285714284
104.676,967.741935483871
104.71,1764.705882352941
104.734,2500.0
104.774,1500.0
104.816,1428.5714285714284
104.854,1578.9473684210527
104.994,428.57142857142856
105.016,2727.2727272727275
105.036,3000.0
105.056,3000.0
105.096,1500.0
105.114,3333.3333333333335
105.136,2727.2727272727275
105.154,3333.3333333333335
105.194,1500.0
105.216,2727.2727272727275
105.256,1500.0
105.274,3333.3333333333335
105.296,2727.2727272727275
105.418,491.8032786885246
105.438,3000.0
105.456,3333.3333333333335
105.476,3000.0
105.496,3000.0
105.524,2142.8571428571427
105.564,1500.0
105.616,1153.8461538461538
105.634,3333.3333333333335
105.656,2727.2727272727275
105.676,3000.0
105.696,3000.0
105.714,3333.3333333333335
105.736,2727.2727272727275
105.758,2727.2727272727275
105.778,3000.0
105.794,3750.0
105.814,3000.0
105.876,967.741935483871
105.914,1578.9473684210527
105.938,2500.0
106.016,769.2307692307693
106.034,3333.3333333333335
106.074,1500.0
106.116,1428.5714285714284
106.214,612.2448979591836
106.252,1578.9473684210527
106.272,3000.0
106.302,2000.0
106.342,1500.0
106.374,1875.0
106.456,731.7073170731707
106.472,3750.0
106.494,2727.2727272727275
106.516,2727.2727272727275
106.536,3000.0
106.576,1500.0
106.594,3333.3333333333335
106.672,769.2307692307693
106.714,1428.5714285714284
106.732,3333.3333333333335
106.794,967.741935483871
106.818,2500.0
106.852,1764.705882352941
106.876,2500.0
106.91,1764.705882352941
106.994,714.2857142857142
107.014,3000.0
107.034,3000.0
107.07,1666.6666666666667
107.11,1500.0
107.156,1304.3478260869565
107.196,1500.0
107.214,3333.3333333333335
107.276,967.741935483871
107.314,1578.9473684210527
107.334,3000.0
107.354,3000.0
107.394,1500.0
107.414,3000.0
107.492,769.2307692307693
107.514,2727.2727272727275
107.534,3000.0
107.592,1034.4827586206895
107.654,967.741935483871
107.752,612.2448979591836
107.774,2727.2727272727275
107.792,3333.3333333333335
107.814,2727.2727272727275
107.844,2000.0
107.914,857.1428571428571
107.932,3333.3333333333335
107.972,1500.0
107.994,2727.2727272727275
108.012,3333.3333333333335
108.032,3000.0
108.132,600.0
108.154,2727.2727272727275
108.232,769.2307692307693
108.252,3000.0
108.292,1500.0
108.312,3000.0
108.334,2727.2727272727275
108.354,3000.0
108.394,1500.0
108.414,3000.0
108.474,1000.0
108.536,967.741935483871
108.552,3750.0
108.572,3000.0
108.596,2500.0
108.634,1578.9473684210527
108.674,1500.0
108.712,1578.9473684210527
108.732,3000.0
108.754,2727.2727272727275
108.794,1500.0
108.874,750.0
108.918,1363.6363636363637
108.994,789.4736842105264
109.014,3000.0
109.034,3000.0
109.052,3333.3333333333335
109.07,3333.3333333333335
109.116,1304.3478260869565
109.132,3750.0
109.154,2727.2727272727275
109.172,3333.3333333333335
109.192,3000.0
109.236,1363.6363636363637
109.312,789.4736842105264
109.336,2500.0
109.356,3000.0
109.394,1578.9473684210527
109.434,1500.0
109.478,1363.6363636363637
109.492,4285.714285714285
109.514,2727.2727272727275
109.532,3333.3333333333335
109.552,3000.0
109.61,1034.4827586206895
109.656,1304.3478260869565
109.674,3333.3333333333335
109.734,1000.0
109.774,1500.0
109.794,3000.0
109.814,3000.0
109.834,3000.0
109.852,3333.3333333333335
109.874,2727.2727272727275
109.894,3000.0
109.914,3000.0
109.934,3000.0
109.954,3000.0
110.056,588.2352941176471
110.076,3000.0
110.092,3750.0
110.136,1363.6363636363637
110.176,1500.0
110.214,1578.9473684210527
110.234,3000.0
110.294,1000.0
110.354,1000.0
110.376,2727.2727272727275
110.414,1578.9473684210527
110.474,1000.0
110.494,3000.0
110.514,3000.0
110.552,1578.9473684210527
110.574,2727.2727272727275
110.594,3000.0
110.614,3000.0
110.632,3333.3333333333335
110.652,3000.0
110.676,2500.0
110.714,1578.9473684210527
110.752,1578.9473684210527
110.834,731.7073170731707
110.854,3000.0
110.912,1034.4827586206895
110.952,1500.0
110.994,1428.5714285714284
111.052,1034.4827586206895
111.074,2727.2727272727275
111.154,750.0
111.194,1500.0
111.252,1034.4827586206895
111.272,3000.0
111.294,2727.2727272727275
111.314,3000.0
111.356,1428.5714285714284
111.374,3333.3333333333335
111.394,3000.0
111.412,3333.3333333333335
111.436,2500.0
111.456,3000.0
111.474,3333.3333333333335
111.494,3000.0
111.57,789.4736842105264
111.614,1363.6363636363637
111.654,1500.0
111.696,1428.5714285714284
111.732,1666.6666666666667
111.754,2727.2727272727275
111.772,3333.3333333333335
111.794,2727.2727272727275
111.834,1500.0
111.934,600.0
111.974,1500.0
111.994,3000.0
112.034,1500.0
112.054,3000.0
112.092,1578.9473684210527
112.118,2307.6923076923076
112.132,4285.714285714285
112.156,2500.0
112.172,3750.0
112.19,3333.3333333333335
112.214,2500.0
112.232,3333.3333333333335
112.314,731.7073170731707
112.334,3000.0
112.394,1000.0
112.434,1500.0
112.472,1578.9473684210527
112.492,3000.0
112.552,1000.0
112.61,1034.4827586206895
112.632,2727.2727272727275
112.674,1428.5714285714284
112.734,1000.0
112.752,3333.3333333333335
112.794,1428.5714285714284
112.812,3333.3333333333335
112.874,967.741935483871
112.912,1578.9473684210527
112.974,967.741935483871
112.992,3333.3333333333335
113.012,3000.0
113.074,967.741935483871
113.09,3750.0
113.112,2727.2727272727275
113.134,2727.2727272727275
113.172,1578.9473684210527
113.212,1500.0
113.252,1500.0
113.272,3000.0
113.312,1500.0
113.334,2727.2727272727275
113.354,3000.0
113.454,600.0
113.514,1000.0
113.534,3000.0
113.554,3000.0
113.574,3000.0
113.592,3333.3333333333335
113.612,3000.0
113.634,2727.2727272727275
113.654,3000.0
113.672,3333.3333333333335
113.694,2727.2727272727275
113.716,2727.2727272727275
113.734,3333.3333333333335
113.752,3333.3333333333335
113.794,1428.5714285714284
113.834,1500.0
113.894,1000.0
113.936,1428.5714285714284
113.954,3333.3333333333335
113.992,1578.9473684210527
114.036,1363.6363636363637
114.074,1578.9473684210527
114.094,3000.0
114.114,3000.0
114.154,1500.0
114.17,3750.0
114.214,1363.6363636363637
114.274,1000.0
114.312,1578.9473684210527
114.334,2727.2727272727275
114.374,1500.0
114.434,1000.0
114.474,1500.0
114.494,3000.0
114.514,3000.0
114.532,3333.3333333333335
114.556,2500.0
114.572,3750.0
114.614,1428.5714285714284
114.716,588.2352941176471
114.732,3750.0
114.754,2727.2727272727275
114.778,2500.0
114.82,1428.5714285714284
114.856,1666.6666666666667
114.874,3333.3333333333335
114.914,1500.0
114.934,3000.0
114.952,3333.3333333333335
115.014,967.741935483871
115.058,1363.6363636363637
115.07,5000.0
115.132,967.741935483871
115.174,1428.5714285714284
115.194,3000.0
115.216,2727.2727272727275
115.234,3333.3333333333335
115.254,3000.0
115.276,2727.2727272727275
115.292,3750.0
115.314,2727.2727272727275
115.334,3000.0
115.396,967.741935483871
115.458,967.741935483871
115.472,4285.714285714285
115.494,2727.2727272727275
115.514,3000.0
115.55,1666.6666666666667
115.592,1428.5714285714284
115.634,1428.5714285714284
115.67,1666.6666666666667
115.694,2500.0
115.732,1578.9473684210527
115.774,1428.5714285714284
115.832,1034.4827586206895
115.914,731.7073170731707
115.934,3000.0
115.954,3000.0
115.972,3333.3333333333335
115.994,2727.2727272727275
116.014,3000.0
116.054,1500.0
116.074,3000.0
116.112,1578.9473684210527
116.192,750.0
116.212,3000.0
116.232,3000.0
116.266,1764.705882352941
116.304,1578.9473684210527
116.354,1200.0
116.394,1500.0
116.41,3750.0
116.432,2727.2727272727275
116.454,2727.2727272727275
116.472,3333.3333333333335
116.494,2727.2727272727275
116.534,1500.0
116.552,3333.3333333333335
116.614,967.741935483871
116.632,3333.3333333333335
116.674,1428.5714285714284
116.73,1071.4285714285713
116.754,2500.0
116.774,3000.0
116.874,600.0
116.896,2727.2727272727275
116.958,967.741935483871
116.998,1500.0
117.052,1111.111111111111
117.092,1500.0
117.112,3000.0
117.132,3000.0
117.152,3000.0
117.172,3000.0
117.194,2727.2727272727275
117.214,3000.0
117.234,3000.0
117.294,1000.0
117.31,3750.0
117.332,2727.2727272727275
117.356,2500.0
117.376,3000.0
117.394,3333.3333333333335
117.432,1578.9473684210527
117.452,3000.0
117.472,3000.0
117.496,2500.0
117.572,789.4736842105264
117.592,3000.0
117.614,2727.2727272727275
117.652,1578.9473684210527
117.694,1428.5714285714284
117.736,1428.5714285714284
117.772,1666.6666666666667
117.792,3000.0
117.812,3000.0
117.852,1500.0
117.894,1428.5714285714284
117.932,1578.9473684210527
117.972,1500.0
117.994,2727.2727272727275
118.032,1578.9473684210527
118.056,2500.0
118.076,3000.0
118.092,3750.0
118.134,1428.5714285714284
118.216,731.7073170731707
118.232,3750.0
118.252,3000.0
118.316,937.5
118.362,1304.3478260869565
118.412,1200.0
118.454,1428.5714285714284
118.472,3333.3333333333335
118.494,2727.2727272727275
118.53,1666.6666666666667
118.554,2500.0
118.592,1578.9473684210527
118.652,1000.0
118.674,2727.2727272727275
118.712,1578.9473684210527
118.732,3000.0
118.774,1428.5714285714284
118.792,3333.3333333333335
118.814,2727.2727272727275
118.832,3333.3333333333335
118.896,937.5
118.914,3333.3333333333335
118.93,3750.0
118.956,2307.6923076923076
118.992,1666.6666666666667
119.032,1500.0
119.072,1500.0
119.132,1000.0
119.152,3000.0
119.192,1500.0
119.254,967.741935483871
119.272,3333.3333333333335
119.352,750.0
119.374,2727.2727272727275
119.392,3333.3333333333335
119.412,3000.0
119.432,3000.0
119.494,967.741935483871
119.528,1764.705882352941
119.554,2307.6923076923076
119.594,1500.0
119.612,3333.3333333333335
119.634,2727.2727272727275
119.686,1153.8461538461538
119.772,697.6744186046512
119.796,2500.0
119.834,1578.9473684210527
119.852,3333.3333333333335
119.874,2727.2727272727275
119.892,3333.3333333333335
119.952,1000.0
120.03,769.2307692307693
120.054,2500.0
120.074,3000.0
120.114,1500.0
120.152,1578.9473684210527
120.192,1500.0
120.212,3000.0
120.332,500.0
120.352,3000.0
120.374,2727.2727272727275
120.4,2307.6923076923076
120.492,652.1739130434783
120.532,1500.0
120.554,2727.2727272727275
120.572,3333.3333333333335
120.592,3000.0
120.672,750.0
120.73,1034.4827586206895
120.754,2500.0
120.774,3000.0
120.794,3000.0
120.814,3000.0
120.836,2727.2727272727275
120.854,3333.3333333333335
120.894,1500.0
120.916,2727.2727272727275
121.012,625.0
121.054,1428.5714285714284
121.074,3000.0
121.098,2500.0
121.14,1428.5714285714284
121.174,1764.705882352941
121.192,3333.3333333333335
121.208,3750.0
121.232,2500.0
121.254,2727.2727272727275
121.272,3333.3333333333335
121.294,2727.2727272727275
121.314,3000.0
121.332,3333.3333333333335
121.374,1428.5714285714284
121.452,769.2307692307693
121.472,3000.0
121.514,1428.5714285714284
121.572,1034.4827586206895
121.594,2727.2727272727275
121.61,3750.0
121.636,2307.6923076923076
121.654,3333.3333333333335
121.67,3750.0
121.77,600.0
121.794,2500.0
121.81,3750.0
121.856,1304.3478260869565
121.896,1500.0
121.936,1500.0
121.99,1111.111111111111
122.014,2500.0
122.032,3333.3333333333335
122.072,1500.0
122.114,1428.5714285714284
122.134,3000.0
122.292,379.746835443038
122.312,3000.0
122.336,2500.0
122.35,4285.714285714285
122.392,1428.5714285714284
122.414,2727.2727272727275
122.534,500.0
122.554,3000.0
122.57,3750.0
122.602,1875.0
122.69,681.8181818181819
122.756,909.090909090909
122.814,1034.4827586206895
122.834,3000.0
122.854,3000.0
122.892,1578.9473684210527
122.932,1500.0
122.954,2727.2727272727275
122.972,3333.3333333333335
122.992,3000.0
123.012,3000.0
123.03,3333.3333333333335
123.052,2727.2727272727275
123.072,3000.0
123.092,3000.0
123.132,1500.0
123.154,2727.2727272727275
123.196,1428.5714285714284
123.274,769.2307692307693
123.292,3333.3333333333335
123.31,3333.3333333333335
123.354,1363.6363636363637
123.396,1428.5714285714284
123.452,1071.4285714285713
123.492,1500.0
123.512,3000.0
123.532,3000.0
123.552,3000.0
123.572,3000.0
123.592,3000.0
123.614,2727.2727272727275
123.636,2727.2727272727275
123.672,1666.6666666666667
123.692,3000.0
123.754,967.741935483871
123.774,3000.0
123.794,3000.0
123.834,1500.0
123.852,3333.3333333333335
123.874,2727.2727272727275
123.894,3000.0
123.914,3000.0
123.932,3333.3333333333335
123.952,3000.0
124.034,731.7073170731707
124.056,2727.2727272727275
124.074,3333.3333333333335
124.112,1578.9473684210527
124.152,1500.0
124.194,1428.5714285714284
124.254,1000.0
124.272,3333.3333333333335
124.292,3000.0
124.334,1428.5714285714284
124.392,1034.4827586206895
124.452,1000.0
124.494,1428.5714285714284
124.534,1500.0
124.554,3000.0
124.574,3000.0
124.592,3333.3333333333335
124.612,3000.0
124.634,2727.2727272727275
124.67,1666.6666666666667
124.794,483.8709677419355
124.816,2727.2727272727275
124.83,4285.714285714285
124.876,1304.3478260869565
124.916,1500.0
124.952,1666.6666666666667
124.972,3000.0
124.992,3000.0
125.008,3750.0
125.032,2500.0
125.074,1428.5714285714284
125.094,3000.0
125.152,1034.4827586206895
125.232,750.0
125.252,3000.0
125.274,2727.2727272727275
125.292,3333.3333333333335
125.31,3333.3333333333335
125.332,2727.2727272727275
125.354,2727.2727272727275
125.372,3333.3333333333335
125.392,3000.0
125.41,3333.3333333333335
125.432,2727.2727272727275
125.512,750.0
125.552,1500.0
125.592,1500.0
125.632,1500.0
125.672,1500.0
125.69,3333.3333333333335
125.712,2727.2727272727275
125.732,3000.0
125.752,3000.0
125.774,2727.2727272727275
125.792,3333.3333333333335
125.832,1500.0
125.87,1578.9473684210527
125.91,1500.0
125.93,3000.0
125.952,2727.2727272727275
125.972,3000.0
125.992,3000.0
126.012,3000.0
126.032,3000.0
126.052,3000.0
126.092,1500.0
126.114,2727.2727272727275
126.134,3000.0
126.15,3750.0
126.172,2727.2727272727275
126.252,750.0
126.272,3000.0
126.292,3000.0
126.332,1500.0
126.372,1500.0
126.41,1578.9473684210527
126.474,937.5
126.512,1578.9473684210527
126.55,1578.9473684210527
126.612,967.741935483871
126.672,1000.0
126.694,2727.2727272727275
126.714,3000.0
126.754,1500.0
126.774,3000.0
126.814,1500.0
126.832,3333.3333333333335
126.852,3000.0
126.97,508.4745762711865
126.992,2727.2727272727275
127.01,3333.3333333333335
127.03,3000.0
127.062,1875.0
127.148,697.6744186046512
127.212,937.5
127.232,3000.0
127.254,2727.2727272727275
127.272,3333.3333333333335
127.332,1000.0
127.352,3000.0
127.41,1034.4827586206895
127.432,2727.2727272727275
127.448,3750.0
127.474,2307.6923076923076
127.492,3333.3333333333335
127.51,3333.3333333333335
127.532,2727.2727272727275
127.552,3000.0
127.574,2727.2727272727275
127.612,1578.9473684210527
127.712,600.0
127.732,3000.0
127.752,3000.0
127.796,1363.6363636363637
127.838,1428.5714285714284
127.872,1764.705882352941
127.914,1428.5714285714284
127.932,3333.3333333333335
127.954,2727.2727272727275
127.99,1666.6666666666667
128.012,2727.2727272727275
128.032,3000.0
128.07,1578.9473684210527
128.09,3000.0
128.11,3000.0
128.152,1428.5714285714284
128.17,3333.3333333333335
128.212,1428.5714285714284
128.228,3750.0
128.252,2500.0
128.27,3333.3333333333335
128.292,2727.2727272727275
128.31,3333.3333333333335
128.334,2500.0
128.414,750.0
128.43,3750.0
128.45,3000.0
128.49,1500.0
128.532,1428.5714285714284
128.572,1500.0
128.59,3333.3333333333335
128.632,1428.5714285714284
128.652,3000.0
128.692,1500.0
128.712,3000.0
128.752,1500.0
128.772,3000.0
128.83,1034.4827586206895
128.85,3000.0
128.872,2727.2727272727275
128.912,1500.0
128.932,3000.0
128.97,1578.9473684210527
128.992,2727.2727272727275
129.01,3333.3333333333335
129.03,3000.0
129.052,2727.2727272727275
129.152,600.0
129.172,3000.0
129.236,937.5
129.274,1578.9473684210527
129.312,1578.9473684210527
129.33,3333.3333333333335
129.392,967.741935483871
129.412,3000.0
129.432,3000.0
129.472,1500.0
129.512,1500.0
129.592,750.0
129.612,3000.0
129.634,2727.2727272727275
129.652,3333.3333333333335
129.67,3333.3333333333335
129.692,2727.2727272727275
129.71,3333.3333333333335
129.734,2500.0
129.75,3750.0
129.77,3000.0
129.81,1500.0
129.874,937.5
129.89,3750.0
129.914,2500.0
129.966,1153.8461538461538
130.052,697.6744186046512
130.11,1034.4827586206895
130.212,588.2352941176471
130.252,1500.0
130.268,3750.0
130.33,967.741935483871
130.354,2500.0
130.372,3333.3333333333335
130.388,3750.0
130.412,2500.0
130.432,3000.0
130.472,1500.0
130.494,2727.2727272727275
130.53,1666.6666666666667
130.612,731.7073170731707
130.634,2727.2727272727275
130.69,1071.4285714285713
130.73,1500.0
130.772,1428.5714285714284
130.83,1034.4827586206895
130.852,2727.2727272727275
130.87,3333.3333333333335
130.892,2727.2727272727275
130.912,3000.0
130.932,3000.0
130.952,3000.0
130.972,3000.0
131.032,1000.0
131.048,3750.0
131.074,2307.6923076923076
131.09,3750.0
131.112,2727.2727272727275
131.132,3000.0
131.17,1578.9473684210527
131.212,1428.5714285714284
131.23,3333.3333333333335
131.252,2727.2727272727275
131.332,750.0
131.35,3333.3333333333335
131.408,1034.4827586206895
131.492,714.2857142857142
131.51,3333.3333333333335
131.528,3333.3333333333335
131.57,1428.5714285714284
131.586,3750.0
131.61,2500.0
131.634,2500.0
131.652,3333.3333333333335
131.67,3333.3333333333335
131.692,2727.2727272727275
131.752,1000.0
131.77,3333.3333333333335
131.832,967.741935483871
131.85,3333.3333333333335
131.89,1500.0
131.91,3000.0
131.932,2727.2727272727275
131.968,1666.6666666666667
131.994,2307.6923076923076
132.072,769.2307692307693
132.112,1500.0
132.15,1578.9473684210527
132.192,1428.5714285714284
132.232,1500.0
132.29,1034.4827586206895
132.33,1500.0
132.392,967.741935483871
132.41,3333.3333333333335
132.432,2727.2727272727275
132.452,3000.0
132.47,3333.3333333333335
132.49,3000.0
132.51,3000.0
132.53,3000.0
132.57,1500.0
132.588,3333.3333333333335
132.61,2727.2727272727275
132.63,3000.0
132.652,2727.2727272727275
132.672,3000.0
132.692,3000.0
132.73,1578.9473684210527
132.81,750.0
132.83,3000.0
132.852,2727.2727272727275
132.892,1500.0
132.932,1500.0
132.972,1500.0
132.99,3333.3333333333335
133.03,1500.0
133.052,2727.2727272727275
133.07,3333.3333333333335
133.112,1428.5714285714284
133.152,1500.0
133.172,3000.0
133.192,3000.0
133.21,3333.3333333333335
133.228,3333.3333333333335
133.25,2727.2727272727275
133.312,967.741935483871
133.33,3333.3333333333335
133.352,2727.2727272727275
133.37,3333.3333333333335
133.394,2500.0
133.432,1578.9473684210527
133.452,3000.0
133.55,612.2448979591836
133.572,2727.2727272727275
133.61,1578.9473684210527
133.636,2307.6923076923076
133.678,1428.5714285714284
133.732,1111.111111111111
133.772,1500.0
133.792,3000.0
133.812,3000.0
133.85,1578.9473684210527
133.876,2307.6923076923076
133.892,3750.0
133.912,3000.0
133.932,3000.0
133.95,3333.3333333333335
133.994,1363.6363636363637
134.016,2727.2727272727275
134.052,1666.6666666666667
134.072,3000.0
134.09,3333.3333333333335
134.112,2727.2727272727275
134.134,2727.2727272727275
134.17,1666.6666666666667
134.19,3000.0
134.212,2727.2727272727275
134.232,3000.0
134.252,3000.0
134.288,1666.6666666666667
134.352,937.5
134.374,2727.2727272727275
134.394,3000.0
134.41,3750.0
134.448,1578.9473684210527
134.488,1500.0
134.53,1428.5714285714284
134.594,937.5
134.61,3750.0
134.63,3000.0
134.67,1500.0
134.692,2727.2727272727275
134.712,3000.0
134.73,3333.3333333333335
134.75,3000.0
134.792,1428.5714285714284
134.812,3000.0
134.836,2500.0
134.872,1666.6666666666667
134.892,3000.0
134.91,3333.3333333333335
134.93,3000.0
134.952,2727.2727272727275
134.972,3000.0
134.99,3333.3333333333335
135.01,3000.0
135.032,2727.2727272727275
135.052,3000.0
135.136,714.2857142857142
135.154,3333.3333333333335
135.17,3750.0
135.194,2500.0
135.21,3750.0
135.242,1875.0
135.314,833.3333333333334
135.328,4285.714285714285
135.392,937.5
135.432,1500.0
135.472,1500.0
135.492,3000.0
135.514,2727.2727272727275
135.532,3333.3333333333335
135.552,3000.0
135.572,3000.0
135.592,3000.0
135.612,3000.0
135.632,3000.0
135.652,3000.0
135.672,3000.0
135.692,3000.0
135.712,3000.0
135.752,1500.0
135.77,3333.3333333333335
135.794,2500.0
135.81,3750.0
135.834,2500.0
135.874,1500.0
135.932,1034.4827586206895
135.954,2727.2727272727275
135.972,3333.3333333333335
135.992,3000.0
136.034,1428.5714285714284
136.074,1500.0
136.114,1500.0
136.134,3000.0
136.152,3333.3333333333335
136.17,3333.3333333333335
136.19,3000.0
136.21,3000.0
136.232,2727.2727272727275
136.254,2727.2727272727275
136.274,3000.0
136.294,3000.0
136.312,3333.3333333333335
136.332,3000.0
136.348,3750.0
136.372,2500.0
136.392,3000.0
136.414,2727.2727272727275
136.43,3750.0
136.454,2500.0
136.472,3333.3333333333335
136.532,1000.0
136.57,1578.9473684210527
136.59,3000.0
136.614,2500.0
136.634,3000.0
136.652,3333.3333333333335
136.754,588.2352941176471
136.772,3333.3333333333335
136.792,3000.0
136.836,1363.6363636363637
136.878,1428.5714285714284
136.914,1666.6666666666667
136.93,3750.0
136.974,1363.6363636363637
136.992,3333.3333333333335
137.032,1500.0
137.116,714.2857142857142
137.134,3333.3333333333335
137.174,1500.0
137.194,3000.0
137.21,3750.0
137.234,2500.0
137.252,3333.3333333333335
137.276,2500.0
137.312,1666.6666666666667
137.332,3000.0
137.352,3000.0
137.374,2727.2727272727275
137.392,3333.3333333333335
137.414,2727.2727272727275
137.496,731.7073170731707
137.514,3333.3333333333335
137.556,1428.5714285714284
137.57,4285.714285714285
137.598,2142.8571428571427
137.642,1363.6363636363637
137.692,1200.0
137.71,3333.3333333333335
137.772,967.741935483871
137.814,1428.5714285714284
137.834,3000.0
137.892,1034.4827586206895
137.934,1428.5714285714284
137.956,2727.2727272727275
137.974,3333.3333333333335
138.01,1666.6666666666667
138.034,2500.0
138.054,3000.0
138.072,3333.3333333333335
138.09,3333.3333333333335
138.11,3000.0
138.132,2727.2727272727275
138.154,2727.2727272727275
138.27,517.2413793103448
138.312,1428.5714285714284
138.362,1200.0
138.454,652.1739130434783
138.512,1034.4827586206895
138.528,3750.0
138.554,2307.6923076923076
138.57,3750.0
138.594,2500.0
138.632,1578.9473684210527
138.652,3000.0
138.692,1500.0
138.714,2727.2727272727275
138.754,1500.0
138.774,3000.0
138.81,1666.6666666666667
138.834,2500.0
138.854,3000.0
138.87,3750.0
138.912,1428.5714285714284
138.936,2500.0
138.954,3333.3333333333335
138.974,3000.0
139.054,750.0
139.074,3000.0
139.134,1000.0
139.174,1500.0
139.214,1500.0
139.272,1034.4827586206895
139.294,2727.2727272727275
139.334,1500.0
139.374,1500.0
139.394,3000.0
139.412,3333.3333333333335
139.474,967.741935483871
139.514,1500.0
139.534,3000.0
139.556,2727.2727272727275
139.574,3333.3333333333335
139.612,1578.9473684210527
139.632,3000.0
139.654,2727.2727272727275
139.67,3750.0
139.712,1428.5714285714284
139.772,1000.0
139.794,2727.2727272727275
139.812,3333.3333333333335
139.832,3000.0
139.868,1666.6666666666667
139.91,1428.5714285714284
139.952,1428.5714285714284
139.97,3333.3333333333335
139.992,2727.2727272727275
140.014,2727.2727272727275
140.052,1578.9473684210527
140.072,3000.0
140.092,3000.0
140.116,2500.0
140.154,1578.9473684210527
140.194,1500.0
140.21,3750.0
140.232,2727.2727272727275
140.254,2727.2727272727275
140.274,3000.0
140.292,3333.3333333333335
140.316,2500.0
140.332,3750.0
140.372,1500.0
140.392,3000.0
140.412,3000.0
140.432,3000.0
140.516,714.2857142857142
140.534,3333.3333333333335
140.552,3333.3333333333335
140.574,2727.2727272727275
140.606,1875.0
140.692,697.6744186046512
140.712,3000.0
140.736,2500.0
140.752,3750.0
140.772,3000.0
140.796,2500.0
140.834,1578.9473684210527
140.894,1000.0
140.954,1000.0
140.974,3000.0
140.994,3000.0
141.014,3000.0
141.032,3333.3333333333335
141.074,1428.5714285714284
141.094,3000.0
141.114,3000.0
141.134,3000.0
141.154,3000.0
141.172,3333.3333333333335
141.258,697.6744186046512
141.274,3750.0
141.294,3000.0
141.312,3333.3333333333335
141.36,1250.0
141.4,1500.0
141.436,1666.6666666666667
141.492,1071.4285714285713
141.514,2727.2727272727275
141.534,3000.0
141.576,1428.5714285714284
141.616,1500.0
141.634,3333.3333333333335
141.654,3000.0
141.716,967.741935483871
141.738,2727.2727272727275
141.752,4285.714285714285
141.772,3000.0
141.794,2727.2727272727275
141.81,3750.0
141.832,2727.2727272727275
141.852,3000.0
141.876,2500.0
141.896,3000.0
141.914,3333.3333333333335
141.934,3000.0
141.996,967.741935483871
142.016,3000.0
142.036,3000.0
142.056,3000.0
142.076,3000.0
142.094,3333.3333333333335
142.126,1875.0
142.216,666.6666666666667
142.252,1666.6666666666667
142.274,2727.2727272727275
142.294,3000.0
142.314,3000.0
142.334,3000.0
142.354,3000.0
142.376,2727.2727272727275
142.416,1500.0
142.456,1500.0
142.476,3000.0
142.556,750.0
142.574,3333.3333333333335
142.594,3000.0
142.618,2500.0
142.634,3750.0
142.654,3000.0
142.672,3333.3333333333335
142.694,2727.2727272727275
142.716,2727.2727272727275
142.792,789.4736842105264
142.816,2500.0
142.834,3333.3333333333335
142.874,1500.0
142.916,1428.5714285714284
142.956,1500.0
142.976,3000.0
143.016,1500.0
143.036,3000.0
143.056,3000.0
143.076,3000.0
143.096,3000.0
143.116,3000.0
143.154,1578.9473684210527
143.174,3000.0
143.196,2727.2727272727275
143.258,967.741935483871
143.294,1666.6666666666667
143.316,2727.2727272727275
143.336,3000.0
143.356,3000.0
143.374,3333.3333333333335
143.394,3000.0
143.416,2727.2727272727275
143.434,3333.3333333333335
143.534,600.0
143.556,2727.2727272727275
143.578,2727.2727272727275
143.624,1304.3478260869565
143.664,1500.0
143.698,1764.705882352941
143.716,3333.3333333333335
143.758,1428.5714285714284
143.778,3000.0
143.792,4285.714285714285
143.834,1428.5714285714284
143.856,2727.2727272727275
143.914,1034.4827586206895
143.978,937.5
143.994,3750.0
144.016,2727.2727272727275
144.036,3000.0
144.058,2727.2727272727275
144.074,3750.0
144.098,2500.0
144.114,3750.0
144.136,2727.2727272727275
144.156,3000.0
144.194,1578.9473684210527
144.214,3000.0
144.314,600.0
144.334,3000.0
144.358,2500.0
144.376,3333.3333333333335
144.404,2142.8571428571427
144.48,789.4736842105264
144.498,3333.3333333333335
144.516,3333.3333333333335
144.534,3333.3333333333335
144.554,3000.0
144.578,2500.0
144.618,1500.0
144.636,3333.3333333333335
144.696,1000.0
144.736,1500.0
144.776,1500.0
144.798,2727.2727272727275
144.836,1578.9473684210527
144.854,3333.3333333333335
144.914,1000.0
144.936,2727.2727272727275
144.956,3000.0
144.996,1500.0
145.018,2727.2727272727275
145.056,1578.9473684210527
145.076,3000.0
145.096,3000.0
145.118,2727.2727272727275
145.152,1764.705882352941
145.192,1500.0
145.238,1304.3478260869565
145.258,3000.0
145.28,2727.2727272727275
145.298,3333.3333333333335
145.318,3000.0
145.336,3333.3333333333335
145.356,3000.0
145.418,967.741935483871
145.438,3000.0
145.496,1034.4827586206895
145.518,2727.2727272727275
145.536,3333.3333333333335
145.556,3000.0
145.578,2727.2727272727275
145.598,3000.0
145.616,3333.3333333333335
145.636,3000.0
145.658,2727.2727272727275
145.676,3333.3333333333335
145.698,2727.2727272727275
145.718,3000.0
145.734,3750.0
145.758,2500.0
145.818,1000.0
145.858,1500.0
145.92,967.741935483871
145.96,1500.0
146.0,1500.0
146.016,3750.0
146.038,2727.2727272727275
146.06,2727.2727272727275
146.078,3333.3333333333335
146.096,3333.3333333333335
146.178,731.7073170731707
146.198,3000.0
146.216,3333.3333333333335
146.236,3000.0
146.276,1500.0
146.3,2500.0
146.318,3333.3333333333335
146.356,1578.9473684210527
146.376,3000.0
146.4,2500.0
146.418,3333.3333333333335
146.438,3000.0
146.46,2727.2727272727275
146.6,428.57142857142856
146.616,3750.0
146.638,2727.2727272727275
146.662,2500.0
146.706,1363.6363636363637
146.74,1764.705882352941
146.756,3750.0
146.796,1500.0
146.818,2727.2727272727275
146.86,1428.5714285714284
146.88,3000.0
146.898,3333.3333333333335
146.938,1500.0
146.96,2727.2727272727275
146.978,3333.3333333333335
147.0,2727.2727272727275
147.038,1578.9473684210527
147.08,1428.5714285714284
147.098,3333.3333333333335
147.12,2727.2727272727275
147.16,1500.0
147.178,3333.3333333333335
147.196,3333.3333333333335
147.218,2727.2727272727275
147.238,3000.0
147.26,2727.2727272727275
147.34,750.0
147.358,3333.3333333333335
147.38,2727.2727272727275
147.4,3000.0
147.446,1304.3478260869565
147.488,1428.5714285714284
147.518,2000.0
147.54,2727.2727272727275
147.556,3750.0
147.58,2500.0
147.6,3000.0
147.622,2727.2727272727275
147.636,4285.714285714285
147.654,3333.3333333333335
147.684,2000.0
147.716,1875.0
147.74,2500.0
147.78,1500.0
147.8,3000.0
147.836,1666.6666666666667
147.858,2727.2727272727275
147.882,2500.0
147.896,4285.714285714285
147.92,2500.0
147.94,3000.0
147.96,3000.0
147.978,3333.3333333333335
148.02,1428.5714285714284
148.036,3750.0
148.122,697.6744186046512
148.142,3000.0
148.158,3750.0
148.198,1500.0
148.224,2307.6923076923076
148.266,1428.5714285714284
148.298,1875.0
148.34,1428.5714285714284
148.354,4285.714285714285
148.398,1363.6363636363637
148.418,3000.0
148.442,2500.0
148.48,1578.9473684210527
148.502,2727.2727272727275
148.52,3333.3333333333335
148.54,3000.0
148.62,750.0
148.636,3750.0
148.676,1500.0
148.7,2500.0
148.72,3000.0
148.742,2727.2727272727275
148.76,3333.3333333333335
148.784,2500.0
148.8,3750.0
148.82,3000.0
148.842,2727.2727272727275
148.918,789.4736842105264
148.942,2500.0
148.962,3000.0
149.002,1500.0
149.042,1500.0
149.08,1578.9473684210527
149.1,3000.0
149.14,1500.0
149.158,3333.3333333333335
149.178,3000.0
149.2,2727.2727272727275
149.22,3000.0
149.242,2727.2727272727275
149.262,3000.0
149.28,3333.3333333333335
149.298,3333.3333333333335
149.32,2727.2727272727275
149.34,3000.0
149.362,2727.2727272727275
149.384,2727.2727272727275
149.4,3750.0
149.438,1578.9473684210527
149.462,2500.0
149.48,3333.3333333333335
149.5,3000.0
149.542,1428.5714285714284
149.562,3000.0
149.578,3750.0
149.682,576.9230769230769
149.704,2727.2727272727275
149.72,3750.0
149.74,3000.0
149.77,2000.0
149.844,810.8108108108108
149.86,3750.0
149.878,3333.3333333333335
149.922,1363.6363636363637
149.96,1578.9473684210527
150.06,600.0
150.1,1500.0
150.14,1500.0
150.162,2727.2727272727275
150.182,3000.0
150.202,3000.0
150.242,1500.0
150.264,2727.2727272727275
150.28,3750.0
150.3,3000.0
150.32,3000.0
150.342,2727.2727272727275
150.382,1500.0
150.484,588.2352941176471
150.502,3333.3333333333335
150.522,3000.0
150.54,3333.3333333333335
150.568,2142.8571428571427
150.646,769.2307692307693
150.66,4285.714285714285
150.7,1500.0
150.722,2727.2727272727275
150.802,750.0
150.84,1578.9473684210527
150.86,3000.0
150.922,967.741935483871
150.942,3000.0
150.964,2727.2727272727275
150.982,3333.3333333333335
151.004,2727.2727272727275
151.024,3000.0
151.042,3333.3333333333335
151.06,3333.3333333333335
151.082,2727.2727272727275
151.102,3000.0
151.124,2727.2727272727275
151.146,2727.2727272727275
151.204,1034.4827586206895
151.222,3333.3333333333335
151.24,3333.3333333333335
151.262,2727.2727272727275
151.302,1500.0
151.346,1363.6363636363637
151.38,1764.705882352941
151.4,3000.0
151.42,3000.0
151.444,2500.0
151.464,3000.0
151.5,1666.6666666666667
151.522,2727.2727272727275
151.564,1428.5714285714284
151.582,3333.3333333333335
151.602,3000.0
151.638,1666.6666666666667
151.664,2307.6923076923076
151.7,1666.6666666666667
151.744,1363.6363636363637
151.762,3333.3333333333335
151.782,3000.0
151.804,2727.2727272727275
151.822,3333.3333333333335
151.84,3333.3333333333335
151.902,967.741935483871
151.966,937.5
152.004,1578.9473684210527
152.026,2727.2727272727275
152.058,1875.0
152.144,697.6744186046512
152.162,3333.3333333333335
152.182,3000.0
152.202,3000.0
152.224,2727.2727272727275
152.24,3750.0
152.262,2727.2727272727275
152.324,967.741935483871
152.344,3000.0
152.404,1000.0
152.424,3000.0
152.444,3000.0
152.462,3333.3333333333335
152.48,3333.3333333333335
152.504,2500.0
152.524,3000.0
152.542,3333.3333333333335
152.566,2500.0
152.584,3333.3333333333335
152.602,3333.3333333333335
152.622,3000.0
152.722,600.0
152.744,2727.2727272727275
152.762,3333.3333333333335
152.814,1153.8461538461538
152.884,857.1428571428571
152.904,3000.0
152.942,1578.9473684210527
152.964,2727.2727272727275
153.046,731.7073170731707
153.066,3000.0
153.102,1666.6666666666667
153.144,1428.5714285714284
153.164,3000.0
153.184,3000.0
153.204,3000.0
153.226,2727.2727272727275
153.246,3000.0
153.264,3333.3333333333335
153.284,3000.0
153.306,2727.2727272727275
153.326,3000.0
153.344,3333.3333333333335
153.446,588.2352941176471
153.462,3750.0
153.528,909.090909090909
153.572,1363.6363636363637
153.606,1764.705882352941
153.624,3333.3333333333335
153.666,1428.5714285714284
153.682,3750.0
153.722,1500.0
153.744,2727.2727272727275
153.766,2727.2727272727275
153.786,3000.0
153.806,3000.0
153.884,769.2307692307693
153.906,2727.2727272727275
153.942,1666.6666666666667
153.966,2500.0
153.984,3333.3333333333335
154.006,2727.2727272727275
154.024,3333.3333333333335
154.046,2727.2727272727275
154.066,3000.0
154.088,2727.2727272727275
154.146,1034.4827586206895
154.166,3000.0
154.184,3333.3333333333335
154.202,3333.3333333333335
154.246,1363.6363636363637
154.286,1500.0
154.324,1578.9473684210527
154.346,2727.2727272727275
154.364,3333.3333333333335
154.388,2500.0
154.404,3750.0
154.424,3000.0
154.468,1363.6363636363637
154.486,3333.3333333333335
154.508,2727.2727272727275
154.526,3333.3333333333335
154.584,1034.4827586206895
154.628,1363.6363636363637
154.644,3750.0
154.664,3000.0
154.684,3000.0
154.706,2727.2727272727275
154.724,3333.3333333333335
154.746,2727.2727272727275
154.764,3333.3333333333335
154.786,2727.2727272727275
154.89,576.9230769230769
154.908,3333.3333333333335
154.924,3750.0
154.972,1250.0
155.066,638.2978723404256
155.126,1000.0
155.148,2727.2727272727275
155.164,3750.0
155.184,3000.0
155.208,2500.0
155.246,1578.9473684210527
155.306,1000.0
155.326,3000.0
155.346,3000.0
155.368,2727.2727272727275
155.39,2727.2727272727275
155.406,3750.0
155.426,3000.0
155.448,2727.2727272727275
155.466,3333.3333333333335
155.488,2727.2727272727275
155.504,3750.0
155.526,2727.2727272727275
155.61,714.2857142857142
155.628,3333.3333333333335
155.646,3333.3333333333335
155.688,1428.5714285714284
155.73,1428.5714285714284
155.766,1666.6666666666667
155.786,3000.0
155.806,3000.0
155.828,2727.2727272727275
155.846,3333.3333333333335
155.868,2727.2727272727275
155.906,1578.9473684210527
155.928,2727.2727272727275
155.946,3333.3333333333335
155.968,2727.2727272727275
155.986,3333.3333333333335
156.006,3000.0
156.028,2727.2727272727275
156.046,3333.3333333333335
156.072,2307.6923076923076
156.086,4285.714285714285
156.126,1500.0
156.148,2727.2727272727275
156.164,3750.0
156.182,3333.3333333333335
156.208,2307.6923076923076
156.228,3000.0
156.326,612.2448979591836
156.344,3333.3333333333335
156.364,3000.0
156.418,1111.111111111111
156.51,652.1739130434783
156.548,1578.9473684210527
156.57,2727.2727272727275
156.584,4285.714285714285
156.606,2727.2727272727275
156.648,1428.5714285714284
156.668,3000.0
156.69,2727.2727272727275
156.704,4285.714285714285
156.726,2727.2727272727275
156.768,1428.5714285714284
156.788,3000.0
156.81,2727.2727272727275
156.828,3333.3333333333335
156.848,3000.0
156.884,1666.6666666666667
156.908,2500.0
156.928,3000.0
156.948,3000.0
156.97,2727.2727272727275
156.988,3333.3333333333335
157.008,3000.0
157.09,731.7073170731707
157.106,3750.0
157.132,2307.6923076923076
157.166,1764.705882352941
157.208,1428.5714285714284
157.246,1578.9473684210527
157.266,3000.0
157.288,2727.2727272727275
157.308,3000.0
157.346,1578.9473684210527
157.368,2727.2727272727275
157.408,1500.0
157.428,3000.0
157.45,2727.2727272727275
157.512,967.741935483871
157.528,3750.0
157.55,2727.2727272727275
157.566,3750.0
157.588,2727.2727272727275
157.608,3000.0
157.628,3000.0
157.648,3000.0
157.668,3000.0
157.706,1578.9473684210527
157.726,3000.0
157.752,2307.6923076923076
157.79,1578.9473684210527
157.808,3333.3333333333335
157.83,2727.2727272727275
157.886,1071.4285714285713
157.928,1428.5714285714284
157.97,1428.5714285714284
157.988,3333.3333333333335
158.03,1428.5714285714284
158.048,3333.3333333333335
158.07,2727.2727272727275
158.09,3000.0
158.106,3750.0
158.152,1304.3478260869565
158.168,3750.0
158.208,1500.0
158.23,2727.2727272727275
158.248,3333.3333333333335
158.272,2500.0
158.292,3000.0
158.308,3750.0
158.328,3000.0
158.35,2727.2727272727275
158.39,1500.0
158.408,3333.3333333333335
158.428,3000.0
158.532,576.9230769230769
158.548,3750.0
158.57,2727.2727272727275
158.59,3000.0
158.618,2142.8571428571427
158.69,833.3333333333334
158.71,3000.0
158.732,2727.2727272727275
158.75,3333.3333333333335
158.768,3333.3333333333335
158.792,2500.0
158.808,3750.0
158.85,1428.5714285714284
158.892,1428.5714285714284
158.91,3333.3333333333335
158.948,1578.9473684210527
158.97,2727.2727272727275
158.99,3000.0
159.01,3000.0
159.03,3000.0
159.052,2727.2727272727275
159.07,3333.3333333333335
159.09,3000.0
159.108,3333.3333333333335
159.132,2500.0
159.152,3000.0
159.17,3333.3333333333335
159.19,3000.0
159.212,2727.2727272727275
159.312,600.0
159.328,3750.0
159.348,3000.0
159.372,2500.0
159.4,2142.8571428571427
159.472,833.3333333333334
159.49,3333.3333333333335
159.51,3000.0
159.528,3333.3333333333335
159.548,3000.0
159.57,2727.2727272727275
159.588,3333.3333333333335
159.61,2727.2727272727275
159.632,2727.2727272727275
159.672,1500.0
159.694,2727.2727272727275
159.752,1034.4827586206895
159.772,3000.0
159.794,2727.2727272727275
159.812,3333.3333333333335
159.832,3000.0
159.87,1578.9473684210527
159.912,1428.5714285714284
159.93,3333.3333333333335
159.97,1500.0
159.992,2727.2727272727275
160.01,3333.3333333333335
160.072,967.741935483871
160.092,3000.0
160.11,3333.3333333333335
160.13,3000.0
160.172,1428.5714285714284
160.214,1428.5714285714284
160.252,1578.9473684210527
160.27,3333.3333333333335
160.292,2727.2727272727275
160.312,3000.0
160.41,612.2448979591836
160.434,2500.0
160.452,3333.3333333333335
160.472,3000.0
160.492,3000.0
160.534,1428.5714285714284
160.55,3750.0
160.57,3000.0
160.592,2727.2727272727275
160.612,3000.0
160.634,2727.2727272727275
160.652,3333.3333333333335
160.674,2727.2727272727275
160.692,3333.3333333333335
160.71,3333.3333333333335
160.73,3000.0
160.77,1500.0
160.832,967.741935483871
160.854,2727.2727272727275
160.87,3750.0
160.892,2727.2727272727275
160.926,1764.705882352941
161.012,697.6744186046512
161.032,3000.0
161.054,2727.2727272727275
161.072,3333.3333333333335
161.094,2727.2727272727275
161.132,1578.9473684210527
161.172,1500.0
161.194,2727.2727272727275
161.212,3333.3333333333335
161.252,1500.0
161.272,3000.0
161.292,3000.0
161.314,2727.2727272727275
161.334,3000.0
161.35,3750.0
161.374,2500.0
161.392,3333.3333333333335
161.412,3000.0
161.434,2727.2727272727275
161.452,3333.3333333333335
161.476,2500.0
161.49,4285.714285714285
161.512,2727.2727272727275
161.532,3000.0
161.55,3333.3333333333335
161.572,2727.2727272727275
161.596,2500.0
161.652,1071.4285714285713
161.672,3000.0
161.692,3000.0
161.73,1578.9473684210527
161.812,731.7073170731707
161.834,2727.2727272727275
161.854,3000.0
161.874,3000.0
161.91,1666.6666666666667
161.934,2500.0
161.954,3000.0
161.992,1578.9473684210527
162.014,2727.2727272727275
162.072,1034.4827586206895
162.114,1428.5714285714284
162.136,2727.2727272727275
162.152,3750.0
162.174,2727.2727272727275
162.192,3333.3333333333335
162.212,3000.0
162.232,3000.0
162.254,2727.2727272727275
162.274,3000.0
162.292,3333.3333333333335
162.316,2500.0
162.434,508.4745762711865
162.452,3333.3333333333335
162.474,2727.2727272727275
162.518,1363.6363636363637
162.558,1500.0
162.594,1666.6666666666667
162.632,1578.9473684210527
162.654,2727.2727272727275
162.672,3333.3333333333335
162.694,2727.2727272727275
162.712,3333.3333333333335
162.732,3000.0
162.792,1000.0
162.81,3333.3333333333335
162.834,2500.0
162.894,1000.0
162.914,3000.0
162.954,1500.0
162.972,3333.3333333333335
162.994,2727.2727272727275
163.016,2727.2727272727275
163.034,3333.3333333333335
163.054,3000.0
163.074,3000.0
163.092,3333.3333333333335
163.112,3000.0
163.176,937.5
163.192,3750.0
163.214,2727.2727272727275
163.236,2727.2727272727275
163.272,1666.6666666666667
163.312,1500.0
163.354,1428.5714285714284
163.372,3333.3333333333335
163.414,1428.5714285714284
163.434,3000.0
163.454,3000.0
163.474,3000.0
163.494,3000.0
163.534,1500.0
163.554,3000.0
163.572,3333.3333333333335
163.636,937.5
163.656,3000.0
163.676,3000.0
163.714,1578.9473684210527
163.732,3333.3333333333335
163.752,3000.0
163.774,2727.2727272727275
163.794,3000.0
163.816,2727.2727272727275
163.894,769.2307692307693
163.914,3000.0
163.956,1428.5714285714284
163.996,1500.0
164.038,1428.5714285714284
164.076,1578.9473684210527
164.094,3333.3333333333335
164.114,3000.0
164.136,2727.2727272727275
164.156,3000.0
164.176,3000.0
164.194,3333.3333333333335
164.216,2727.2727272727275
164.238,2727.2727272727275
164.256,3333.3333333333335
164.272,3750.0
164.296,2500.0
164.338,1428.5714285714284
164.356,3333.3333333333335
164.374,3333.3333333333335
164.398,2500.0
164.414,3750.0
164.434,3000.0
164.456,2727.2727272727275
164.474,3333.3333333333335
164.498,2500.0
164.516,3333.3333333333335
164.534,3333.3333333333335
164.616,731.7073170731707
164.636,3000.0
164.656,3000.0
164.674,3333.3333333333335
164.718,1363.6363636363637
164.76,1428.5714285714284
164.798,1578.9473684210527
164.814,3750.0
164.836,2727.2727272727275
164.856,3000.0
164.878,2727.2727272727275
164.956,769.2307692307693
164.98,2500.0
164.996,3750.0
165.014,3333.3333333333335
165.056,1428.5714285714284
165.078,2727.2727272727275
165.098,3000.0
165.116,3333.3333333333335
165.138,2727.2727272727275
165.156,3333.3333333333335
165.176,3000.0
165.198,2727.2727272727275
165.216,3333.3333333333335
165.238,2727.2727272727275
165.336,612.2448979591836
165.358,2727.2727272727275
165.378,3000.0
165.418,1500.0
165.462,1363.6363636363637
165.496,1764.705882352941
165.514,3333.3333333333335
165.536,2727.2727272727275
165.558,2727.2727272727275
165.576,3333.3333333333335
165.616,1500.0
165.638,2727.2727272727275
165.658,3000.0
165.678,3000.0
165.698,3000.0
165.718,3000.0
165.734,3750.0
165.756,2727.2727272727275
165.776,3000.0
165.796,3000.0
165.836,1500.0
165.896,1000.0
165.918,2727.2727272727275
165.938,3000.0
166.002,937.5
166.02,3333.3333333333335
166.036,3750.0
166.058,2727.2727272727275
166.094,1666.6666666666667
166.136,1428.5714285714284
166.178,1428.5714285714284
166.216,1578.9473684210527
166.238,2727.2727272727275
166.258,3000.0
166.296,1578.9473684210527
166.32,2500.0
166.338,3333.3333333333335
166.358,3000.0
166.376,3333.3333333333335
166.42,1363.6363636363637
166.438,3333.3333333333335
166.458,3000.0
166.478,3000.0
166.498,3000.0
166.516,3333.3333333333335
166.536,3000.0
166.598,967.741935483871
166.618,3000.0
166.656,1578.9473684210527
166.68,2500.0
166.72,1500.0
166.742,2727.2727272727275
166.78,1578.9473684210527
166.808,2142.8571428571427
166.9,652.1739130434783
166.916,3750.0
166.938,2727.2727272727275
166.96,2727.2727272727275
166.978,3333.3333333333335
167.0,2727.2727272727275
167.02,3000.0
167.038,3333.3333333333335
167.062,2500.0
167.08,3333.3333333333335
167.098,3333.3333333333335
167.158,1000.0
167.178,3000.0
167.198,3000.0
167.22,2727.2727272727275
167.238,3333.3333333333335
167.278,1500.0
167.3,2727.2727272727275
167.32,3000.0
167.358,1578.9473684210527
167.438,750.0
167.476,1578.9473684210527
167.516,1500.0
167.558,1428.5714285714284
167.596,1578.9473684210527
167.62,2500.0
167.66,1500.0
167.68,3000.0
167.698,3333.3333333333335
167.72,2727.2727272727275
167.74,3000.0
167.764,2500.0
167.78,3750.0
167.8,3000.0
167.818,3333.3333333333335
167.838,3000.0
167.858,3000.0
167.878,3000.0
167.898,3000.0
167.92,2727.2727272727275
167.938,3333.3333333333335
167.962,2500.0
167.978,3750.0
168.002,2500.0
168.02,3333.3333333333335
168.038,3333.3333333333335
168.06,2727.2727272727275
168.142,731.7073170731707
168.16,3333.3333333333335
168.182,2727.2727272727275
168.22,1578.9473684210527
168.262,1428.5714285714284
168.3,1578.9473684210527
168.318,3333.3333333333335
168.338,3000.0
168.36,2727.2727272727275
168.378,3333.3333333333335
168.4,2727.2727272727275
168.418,3333.3333333333335
168.458,1500.0
168.5,1428.5714285714284
168.56,1000.0
168.58,3000.0
168.6,3000.0
168.68,750.0
168.702,2727.2727272727275
168.72,3333.3333333333335
168.758,1578.9473684210527
168.776,3333.3333333333335
168.798,2727.2727272727275
168.864,909.090909090909
168.88,3750.0
168.9,3000.0
168.954,1111.111111111111
168.994,1500.0
169.022,2142.8571428571427
169.04,3333.3333333333335
169.08,1500.0
169.102,2727.2727272727275
169.122,3000.0
169.14,3333.3333333333335
169.182,1428.5714285714284
169.22,1578.9473684210527
169.238,3333.3333333333335
169.302,937.5
169.34,1578.9473684210527
169.36,3000.0
169.38,3000.0
169.4,3000.0
169.422,2727.2727272727275
169.442,3000.0
169.46,3333.3333333333335
169.48,3000.0
169.542,967.741935483871
169.62,769.2307692307693
169.642,2727.2727272727275
169.658,3750.0
169.704,1304.3478260869565
169.744,1500.0
169.782,1578.9473684210527
169.8,3333.3333333333335
169.822,2727.2727272727275
169.84,3333.3333333333335
169.86,3000.0
169.88,3000.0
169.9,3000.0
169.918,3333.3333333333335
169.96,1428.5714285714284
169.982,2727.2727272727275
170.042,1000.0
170.062,3000.0
170.1,1578.9473684210527
170.124,2500.0
170.142,3333.3333333333335
170.16,3333.3333333333335
170.18,3000.0
170.2,3000.0
170.22,3000.0
170.282,967.741935483871
170.302,3000.0
170.382,750.0
170.404,2727.2727272727275
170.44,1666.6666666666667
170.47,2000.0
170.542,833.3333333333334
170.56,3333.3333333333335
170.582,2727.2727272727275
170.624,1428.5714285714284
170.64,3750.0
170.66,3000.0
170.682,2727.2727272727275
170.7,3333.3333333333335
170.762,967.741935483871
170.802,1500.0
170.842,1500.0
170.864,2727.2727272727275
170.882,3333.3333333333335
170.9,3333.3333333333335
170.922,2727.2727272727275
170.942,3000.0
170.964,2727.2727272727275
170.982,3333.3333333333335
171.0,3333.3333333333335
171.02,3000.0
171.04,3000.0
171.062,2727.2727272727275
171.078,3750.0
171.102,2500.0
171.122,3000.0
171.182,1000.0
171.202,3000.0
171.222,3000.0
171.242,3000.0
171.26,3333.3333333333335
171.286,2307.6923076923076
171.326,1500.0
171.362,1666.6666666666667
171.402,1500.0
171.466,937.5
171.48,4285.714285714285
171.504,2500.0
171.524,3000.0
171.544,3000.0
171.566,2727.2727272727275
171.58,4285.714285714285
171.622,1428.5714285714284
171.644,2727.2727272727275
171.664,3000.0
171.684,3000.0
171.7,3750.0
171.724,2500.0
171.766,1428.5714285714284
171.784,3333.3333333333335
171.804,3000.0
171.822,3333.3333333333335
171.844,2727.2727272727275
171.86,3750.0
171.882,2727.2727272727275
171.944,967.741935483871
171.964,3000.0
171.982,3333.3333333333335
172.004,2727.2727272727275
172.04,1666.6666666666667
172.082,1428.5714285714284
172.126,1363.6363636363637
172.162,1666.6666666666667
172.18,3333.3333333333335
172.202,2727.2727272727275
172.224,2727.2727272727275
172.324,600.0
172.364,1500.0
172.404,1500.0
172.422,3333.3333333333335
172.444,2727.2727272727275
172.462,3333.3333333333335
172.486,2500.0
172.502,3750.0
172.524,2727.2727272727275
172.542,3333.3333333333335
172.566,2500.0
172.602,1666.6666666666667
172.662,1000.0
172.682,3000.0
172.702,3000.0
172.724,2727.2727272727275
172.756,1875.0
172.842,697.6744186046512
172.862,3000.0
172.882,3000.0
172.9,3333.3333333333335
172.924,2500.0
172.944,3000.0
172.964,3000.0
172.984,3000.0
173.002,3333.3333333333335
173.044,1428.5714285714284
173.084,1500.0
173.102,3333.3333333333335
173.124,2727.2727272727275
173.144,3000.0
173.168,2500.0
173.182,4285.714285714285
173.202,3000.0
173.224,2727.2727272727275
173.242,3333.3333333333335
173.262,3000.0
173.306,1363.6363636363637
173.322,3750.0
173.346,2500.0
173.422,789.4736842105264
173.442,3000.0
173.462,3000.0
173.502,1500.0
173.586,714.2857142857142
173.622,1666.6666666666667
173.644,2727.2727272727275
173.666,2727.2727272727275
173.682,3750.0
173.704,2727.2727272727275
173.784,750.0
173.866,731.7073170731707
173.922,1071.4285714285713
173.944,2727.2727272727275
173.962,3333.3333333333335
173.986,2500.0
174.002,3750.0
174.022,3000.0
174.042,3000.0
174.126,714.2857142857142
174.146,3000.0
174.166,3000.0
174.182,3750.0
174.228,1304.3478260869565
174.268,1500.0
174.308,1500.0
174.326,3333.3333333333335
174.346,3000.0
174.364,3333.3333333333335
174.382,3333.3333333333335
174.442,1000.0
174.466,2500.0
174.504,1578.9473684210527
174.522,3333.3333333333335
174.562,1500.0
174.604,1428.5714285714284
174.626,2727.2727272727275
174.646,3000.0
174.662,3750.0
174.684,2727.2727272727275
174.706,2727.2727272727275
174.724,3333.3333333333335
174.742,3333.3333333333335
174.844,588.2352941176471
174.884,1500.0
174.926,1428.5714285714284
174.968,1428.5714285714284
175.006,1578.9473684210527
175.024,3333.3333333333335
175.086,967.741935483871
175.122,1666.6666666666667
175.146,2500.0
175.186,1500.0
175.204,3333.3333333333335
175.222,3333.3333333333335
175.266,1363.6363636363637
175.284,3333.3333333333335
175.304,3000.0
175.344,1500.0
175.364,3000.0
175.384,3000.0
175.406,2727.2727272727275
175.424,3333.3333333333335
175.442,3333.3333333333335
175.466,2500.0
175.566,600.0
175.584,3333.3333333333335
175.604,3000.0
175.648,1363.6363636363637
175.688,1500.0
175.726,1578.9473684210527
175.746,3000.0
175.766,3000.0
175.786,3000.0
175.804,3333.3333333333335
175.826,2727.2727272727275
175.846,3000.0
175.866,3000.0
175.904,1578.9473684210527
175.926,2727.2727272727275
175.946,3000.0
176.004,1034.4827586206895
176.026,2727.2727272727275
176.046,3000.0
176.064,3333.3333333333335
176.084,3000.0
176.104,3000.0
176.126,2727.2727272727275
176.146,3000.0
176.164,3333.3333333333335
176.266,588.2352941176471
176.286,3000.0
176.306,3000.0
176.35,1363.6363636363637
176.39,1500.0
176.426,1666.6666666666667
176.446,3000.0
176.466,3000.0
176.524,1034.4827586206895
176.546,2727.2727272727275
176.568,2727.2727272727275
176.584,3750.0
176.624,1500.0
176.688,937.5
176.708,3000.0
176.728,3000.0
176.766,1578.9473684210527
176.784,3333.3333333333335
176.806,2727.2727272727275
176.826,3000.0
176.846,3000.0
176.884,1578.9473684210527
176.988,576.9230769230769
177.006,3333.3333333333335
177.068,967.741935483871
177.11,1428.5714285714284
177.146,1666.6666666666667
177.168,2727.2727272727275
177.188,3000.0
177.206,3333.3333333333335
177.226,3000.0
177.268,1428.5714285714284
177.33,967.741935483871
177.35,3000.0
177.408,1034.4827586206895
177.424,3750.0
177.448,2500.0
177.464,3750.0
177.506,1428.5714285714284
177.526,3000.0
177.546,3000.0
177.568,2727.2727272727275
177.584,3750.0
177.626,1428.5714285714284
177.648,2727.2727272727275
177.666,3333.3333333333335
177.744,769.2307692307693
177.764,3000.0
177.786,2727.2727272727275
177.828,1428.5714285714284
177.868,1500.0
177.908,1500.0
177.924,3750.0
177.944,3000.0
177.986,1428.5714285714284
178.024,1578.9473684210527
178.048,2500.0
178.106,1034.4827586206895
178.128,2727.2727272727275
178.186,1034.4827586206895
178.226,1500.0
178.246,3000.0
178.266,3000.0
178.286,3000.0
178.306,3000.0
178.348,1428.5714285714284
178.368,3000.0
178.468,600.0
178.488,3000.0
178.508,3000.0
178.526,3333.3333333333335
178.548,2727.2727272727275
178.568,3000.0
178.598,2000.0
178.668,857.1428571428571
178.686,3333.3333333333335
178.708,2727.2727272727275
178.748,1500.0
178.786,1578.9473684210527
178.804,3333.3333333333335
178.824,3000.0
178.85,2307.6923076923076
178.87,3000.0
178.886,3750.0
178.924,1578.9473684210527
178.948,2500.0
178.966,3333.3333333333335
178.99,2500.0
179.006,3750.0
179.046,1500.0
179.068,2727.2727272727275
179.084,3750.0
179.11,2307.6923076923076
179.128,3333.3333333333335
179.148,3000.0
179.246,612.2448979591836
179.268,2727.2727272727275
179.286,3333.3333333333335
179.306,3000.0
179.338,1875.0
179.38,1428.5714285714284
179.41,2000.0
179.428,3333.3333333333335
179.448,3000.0
179.466,3333.3333333333335
179.486,3000.0
179.508,2727.2727272727275
179.546,1578.9473684210527
179.566,3000.0
179.628,967.741935483871
179.644,3750.0
179.668,2500.0
179.688,3000.0
179.706,3333.3333333333335
179.728,2727.2727272727275
179.752,2500.0
179.766,4285.714285714285
179.79,2500.0
179.83,1500.0
179.85,3000.0
179.866,3750.0
179.888,2727.2727272727275
179.906,3333.3333333333335
180.01,576.9230769230769
180.03,3000.0
180.052,2727.2727272727275
180.068,3750.0
180.098,2000.0
180.138,1500.0
180.17,1875.0
180.186,3750.0
180.208,2727.2727272727275
180.226,3333.3333333333335
180.248,2727.2727272727275
180.27,2727.2727272727275
180.288,3333.3333333333335
180.306,3333.3333333333335
180.388,731.7073170731707
180.448,1000.0
180.468,3000.0
180.508,1500.0
180.528,3000.0
180.55,2727.2727272727275
180.568,3333.3333333333335
180.588,3000.0
180.646,1034.4827586206895
180.668,2727.2727272727275
180.75,731.7073170731707
180.77,3000.0
180.79,3000.0
180.81,3000.0
180.828,3333.3333333333335
180.854,2307.6923076923076
180.93,789.4736842105264
180.946,3750.0
180.97,2500.0
181.01,1500.0
181.066,1071.4285714285713
181.09,2500.0
181.132,1428.5714285714284
181.148,3750.0
181.19,1428.5714285714284
181.208,3333.3333333333335
181.23,2727.2727272727275
181.25,3000.0
181.27,3000.0
181.288,3333.3333333333335
181.306,3333.3333333333335
181.328,2727.2727272727275
181.35,2727.2727272727275
181.37,3000.0
181.392,2727.2727272727275
181.428,1666.6666666666667
181.49,967.741935483871
181.508,3333.3333333333335
181.528,3000.0
181.582,1111.111111111111
181.668,697.6744186046512
181.686,3333.3333333333335
181.73,1363.6363636363637
181.75,3000.0
181.77,3000.0
181.788,3333.3333333333335
181.85,967.741935483871
181.868,3333.3333333333335
181.888,3000.0
181.928,1500.0
181.952,2500.0
181.97,3333.3333333333335
181.992,2727.2727272727275
182.03,1578.9473684210527
182.048,3333.3333333333335
182.068,3000.0
182.09,2727.2727272727275
182.112,2727.2727272727275
182.128,3750.0
182.148,3000.0
182.25,588.2352941176471
182.27,3000.0
182.29,3000.0
182.336,1304.3478260869565
182.41,810.8108108108108
182.428,3333.3333333333335
182.45,2727.2727272727275
182.47,3000.0
182.494,2500.0
182.51,3750.0
182.548,1578.9473684210527
182.568,3000.0
182.59,2727.2727272727275
182.612,2727.2727272727275
182.628,3750.0
182.69,967.741935483871
182.712,2727.2727272727275
182.732,3000.0
182.75,3333.3333333333335
182.772,2727.2727272727275
182.81,1578.9473684210527
182.832,2727.2727272727275
182.91,769.2307692307693
182.966,1071.4285714285713
183.028,967.741935483871
183.05,2727.2727272727275
183.07,3000.0
183.088,3333.3333333333335
183.122,1764.705882352941
183.194,833.3333333333334
183.21,3750.0
183.23,3000.0
183.27,1500.0
183.29,3000.0
183.35,1000.0
183.374,2500.0
183.392,3333.3333333333335
183.412,3000.0
183.43,3333.3333333333335
183.45,3000.0
183.47,3000.0
183.512,1428.5714285714284
183.55,1578.9473684210527
183.572,2727.2727272727275
183.59,3333.3333333333335
183.612,2727.2727272727275
183.632,3000.0
183.65,3333.3333333333335
183.668,3333.3333333333335
183.772,576.9230769230769
183.79,3333.3333333333335
183.81,3000.0
183.854,1363.6363636363637
183.894,1500.0
183.932,1578.9473684210527
183.95,3333.3333333333335
183.968,3333.3333333333335
183.99,2727.2727272727275
184.012,2727.2727272727275
184.03,3333.3333333333335
184.05,3000.0
184.068,3333.3333333333335
184.09,2727.2727272727275
184.13,1500.0
184.152,2727.2727272727275
184.192,1500.0
184.21,3333.3333333333335
184.252,1428.5714285714284
184.294,1428.5714285714284
184.312,3333.3333333333335
184.33,3333.3333333333335
184.352,2727.2727272727275
184.372,3000.0
184.39,3333.3333333333335
184.43,1500.0
184.51,750.0
184.534,2500.0
184.554,3000.0
184.592,1578.9473684210527
184.672,750.0
184.69,3333.3333333333335
184.714,2500.0
184.732,3333.3333333333335
184.75,3333.3333333333335
184.77,3000.0
184.832,967.741935483871
184.872,1500.0
184.932,1000.0
184.952,3000.0
184.972,3000.0
184.99,3333.3333333333335
185.012,2727.2727272727275
185.034,2727.2727272727275
185.054,3000.0
185.072,3333.3333333333335
185.092,3000.0
185.112,3000.0
185.132,3000.0
185.148,3750.0
185.172,2500.0
185.252,750.0
185.272,3000.0
185.292,3000.0
185.33,1578.9473684210527
185.372,1428.5714285714284
185.41,1578.9473684210527
185.45,1500.0
185.47,3000.0
185.494,2500.0
185.53,1666.6666666666667
185.554,2500.0
185.574,3000.0
185.592,3333.3333333333335
185.614,2727.2727272727275
185.67,1071.4285714285713
185.692,2727.2727272727275
185.716,2500.0
185.732,3750.0
185.754,2727.2727272727275
185.772,3333.3333333333335
185.792,3000.0
185.812,3000.0
185.834,2727.2727272727275
185.852,3333.3333333333335
185.874,2727.2727272727275
185.954,750.0
185.972,3333.3333333333335
185.992,3000.0
186.01,3333.3333333333335
186.056,1304.3478260869565
186.098,1428.5714285714284
186.152,1111.111111111111
186.17,3333.3333333333335
186.192,2727.2727272727275
186.214,2727.2727272727275
186.232,3333.3333333333335
186.252,3000.0
186.332,750.0
186.352,3000.0
186.39,1578.9473684210527
186.412,2727.2727272727275
186.432,3000.0
186.456,2500.0
186.474,3333.3333333333335
186.494,3000.0
186.51,3750.0
186.53,3000.0
186.552,2727.2727272727275
186.59,1578.9473684210527
186.612,2727.2727272727275
186.634,2727.2727272727275
186.692,1034.4827586206895
186.716,2500.0
186.734,3333.3333333333335
186.752,3333.3333333333335
186.794,1428.5714285714284
186.834,1500.0
186.874,1500.0
186.894,3000.0
186.934,1500.0
186.952,3333.3333333333335
186.97,3333.3333333333335
187.054,714.2857142857142
187.072,3333.3333333333335
187.134,967.741935483871
187.156,2727.2727272727275
187.174,3333.3333333333335
187.192,3333.3333333333335
187.214,2727.2727272727275
187.234,3000.0
187.254,3000.0
187.274,3000.0
187.292,3333.3333333333335
187.314,2727.2727272727275
187.332,3333.3333333333335
187.35,3333.3333333333335
187.372,2727.2727272727275
187.432,1000.0
187.45,3333.3333333333335
187.472,2727.2727272727275
187.494,2727.2727272727275
187.528,1764.705882352941
187.612,714.2857142857142
187.632,3000.0
187.654,2727.2727272727275
187.674,3000.0
187.69,3750.0
187.712,2727.2727272727275
187.734,2727.2727272727275
187.756,2727.2727272727275
187.774,3333.3333333333335
187.798,2500.0
187.814,3750.0
187.874,1000.0
187.896,2727.2727272727275
187.914,3333.3333333333335
187.932,3333.3333333333335
187.952,3000.0
187.976,2500.0
187.994,3333.3333333333335
188.012,3333.3333333333335
188.034,2727.2727272727275
188.054,3000.0
188.072,3333.3333333333335
188.09,3333.3333333333335
188.116,2307.6923076923076
188.154,1578.9473684210527
188.172,3333.3333333333335
188.192,3000.0
188.214,2727.2727272727275
188.246,1875.0
188.334,681.8181818181819
188.372,1578.9473684210527
188.39,3333.3333333333335
188.414,2500.0
188.45,1666.6666666666667
188.476,2307.6923076923076
188.492,3750.0
188.514,2727.2727272727275
188.534,3000.0
188.572,1578.9473684210527
188.592,3000.0
188.614,2727.2727272727275
188.632,3333.3333333333335
188.652,3000.0
188.674,2727.2727272727275
188.694,3000.0
188.712,3333.3333333333335
188.734,2727.2727272727275
188.754,3000.0
188.774,3000.0
188.792,3333.3333333333335
188.816,2500.0
188.876,1000.0
188.894,3333.3333333333335
188.912,3333.3333333333335
188.936,2500.0
188.974,1578.9473684210527
189.014,1500.0
189.056,1428.5714285714284
189.072,3750.0
189.092,3000.0
189.11,3333.3333333333335
189.156,1304.3478260869565
189.174,3333.3333333333335
189.192,3333.3333333333335
189.216,2500.0
189.254,1578.9473684210527
189.272,3333.3333333333335
189.314,1428.5714285714284
189.334,3000.0
189.354,3000.0
189.374,3000.0
189.392,3333.3333333333335
189.414,2727.2727272727275
189.432,3333.3333333333335
189.454,2727.2727272727275
189.472,3333.3333333333335
189.496,2500.0
189.534,1578.9473684210527
189.554,3000.0
189.572,3333.3333333333335
189.592,3000.0
189.654,967.741935483871
189.67,3750.0
189.694,2500.0
189.714,3000.0
189.75,1666.6666666666667
189.83,750.0
189.874,1363.6363636363637
189.894,3000.0
189.914,3000.0
189.934,3000.0
189.976,1428.5714285714284
189.994,3333.3333333333335
190.034,1500.0
190.094,1000.0
190.114,3000.0
190.136,2727.2727272727275
190.158,2727.2727272727275
190.17,5000.0
190.196,2307.6923076923076
190.216,3000.0
190.234,3333.3333333333335
190.254,3000.0
190.276,2727.2727272727275
190.296,3000.0
190.374,769.2307692307693
190.396,2727.2727272727275
190.412,3750.0
190.476,937.5
190.52,1363.6363636363637
190.556,1666.6666666666667
190.574,3333.3333333333335
190.632,1034.4827586206895
190.674,1428.5714285714284
190.694,3000.0
190.756,967.741935483871
190.774,3333.3333333333335
190.816,1428.5714285714284
190.834,3333.3333333333335
190.874,1500.0
190.894,3000.0
190.914,3000.0
190.934,3000.0
190.954,3000.0
190.974,3000.0
190.994,3000.0
191.014,3000.0
191.052,1578.9473684210527
191.114,967.741935483871
191.134,3000.0
191.176,1428.5714285714284
191.206,2000.0
191.276,857.1428571428571
191.294,3333.3333333333335
191.332,1578.9473684210527
191.358,2307.6923076923076
191.374,3750.0
191.392,3333.3333333333335
191.416,2500.0
191.434,3333.3333333333335
191.454,3000.0
191.476,2727.2727272727275
191.494,3333.3333333333335
191.534,1500.0
191.556,2727.2727272727275
191.592,1666.6666666666667
191.636,1363.6363636363637
191.654,3333.3333333333335
191.676,2727.2727272727275
191.696,3000.0
191.714,3333.3333333333335
191.734,3000.0
191.754,3000.0
191.774,3000.0
191.79,3750.0
191.812,2727.2727272727275
191.836,2500.0
191.878,1428.5714285714284
191.896,3333.3333333333335
191.918,2727.2727272727275
191.932,4285.714285714285
191.968,1666.6666666666667
192.054,697.6744186046512
192.072,3333.3333333333335
192.092,3000.0
192.112,3000.0
192.134,2727.2727272727275
192.172,1578.9473684210527
192.236,937.5
192.25,4285.714285714285
192.318,882.3529411764705
192.334,3750.0
192.352,3333.3333333333335
192.374,2727.2727272727275
192.394,3000.0
192.414,3000.0
192.434,3000.0
192.456,2727.2727272727275
192.476,3000.0
192.494,3333.3333333333335
192.516,2727.2727272727275
192.534,3333.3333333333335
192.552,3333.3333333333335
192.578,2307.6923076923076
192.636,1034.4827586206895
192.656,3000.0
192.672,3750.0
192.712,1500.0
192.752,1500.0
192.794,1428.5714285714284
192.812,3333.3333333333335
192.834,2727.2727272727275
192.854,3000.0
192.912,1034.4827586206895
192.936,2500.0
192.996,1000.0
193.014,3333.3333333333335
193.054,1500.0
193.078,2500.0
193.096,3333.3333333333335
193.114,3333.3333333333335
193.134,3000.0
193.156,2727.2727272727275
193.174,3333.3333333333335
193.214,1500.0
193.234,3000.0
193.256,2727.2727272727275
193.354,612.2448979591836
193.376,2727.2727272727275
193.396,3000.0
193.438,1428.5714285714284
193.478,1500.0
193.514,1666.6666666666667
193.534,3000.0
193.574,1500.0
193.594,3000.0
193.612,3333.3333333333335
193.634,2727.2727272727275
193.654,3000.0
193.676,2727.2727272727275
193.696,3000.0
193.714,3333.3333333333335
193.772,1034.4827586206895
193.796,2500.0
193.81,4285.714285714285
193.856,1304.3478260869565
193.874,3333.3333333333335
193.894,3000.0
193.914,3000.0
193.934,3000.0
193.952,3333.3333333333335
193.978,2307.6923076923076
193.994,3750.0
194.074,750.0
194.094,3000.0
194.114,3000.0
194.136,2727.2727272727275
194.18,1363.6363636363637
194.222,1428.5714285714284
194.258,1666.6666666666667
194.276,3333.3333333333335
194.294,3333.3333333333335
194.334,1500.0
194.35,3750.0
194.376,2307.6923076923076
194.394,3333.3333333333335
194.414,3000.0
194.456,1428.5714285714284
194.536,750.0
194.554,3333.3333333333335
194.576,2727.2727272727275
194.592,3750.0
194.634,1428.5714285714284
194.654,3000.0
194.676,2727.2727272727275
194.694,3333.3333333333335
194.712,3333.3333333333335
194.734,2727.2727272727275
194.754,3000.0
194.774,3000.0
194.818,1363.6363636363637
194.874,1071.4285714285713
194.894,3000.0
194.914,3000.0
194.932,3333.3333333333335
194.976,1363.6363636363637
195.02,1363.6363636363637
195.056,1666.6666666666667
195.076,3000.0
195.094,3333.3333333333335
195.114,3000.0
195.134,3000.0
195.172,1578.9473684210527
195.196,2500.0
195.216,3000.0
195.236,3000.0
195.256,3000.0
195.274,3333.3333333333335
195.314,1500.0
195.334,3000.0
195.352,3333.3333333333335
195.376,2500.0
195.394,3333.3333333333335
195.416,2727.2727272727275
195.436,3000.0
195.476,1500.0
195.494,3333.3333333333335
195.516,2727.2727272727275
195.532,3750.0
195.554,2727.2727272727275
195.616,967.741935483871
195.636,3000.0
195.656,3000.0
195.714,1034.4827586206895
195.754,1500.0
195.796,1428.5714285714284
195.834,1578.9473684210527
195.856,2727.2727272727275
195.876,3000.0
195.894,3333.3333333333335
195.916,2727.2727272727275
195.934,3333.3333333333335
195.956,2727.2727272727275
195.994,1578.9473684210527
196.014,3000.0
196.034,3000.0
196.054,3000.0
196.076,2727.2727272727275
196.096,3000.0
196.116,3000.0
196.134,3333.3333333333335
196.152,3333.3333333333335
196.174,2727.2727272727275
196.192,3333.3333333333335
196.216,2500.0
196.234,3333.3333333333335
196.254,3000.0
196.294,1500.0
196.358,937.5
196.376,3333.3333333333335
196.396,3000.0
196.416,3000.0
196.452,1666.6666666666667
196.492,1500.0
196.536,1363.6363636363637
196.574,1578.9473684210527
196.598,2500.0
196.612,4285.714285714285
196.632,3000.0
196.696,937.5
196.714,3333.3333333333335
196.732,3333.3333333333335
196.796,937.5
196.816,3000.0
196.834,3333.3333333333335
196.856,2727.2727272727275
196.874,3333.3333333333335
196.892,3333.3333333333335
196.914,2727.2727272727275
196.936,2727.2727272727275
196.954,3333.3333333333335
196.972,3333.3333333333335
196.994,2727.2727272727275
197.01,3750.0
197.032,2727.2727272727275
197.054,2727.2727272727275
197.096,1428.5714285714284
197.112,3750.0
197.154,1428.5714285714284
197.184,2000.0
197.272,681.8181818181819
197.314,1428.5714285714284
197.374,1000.0
197.414,1500.0
197.434,3000.0
197.474,1500.0
197.494,3000.0
197.514,3000.0
197.536,2727.2727272727275
197.554,3333.3333333333335
197.574,3000.0
197.596,2727.2727272727275
197.616,3000.0
197.632,3750.0
197.654,2727.2727272727275
197.676,2727.2727272727275
197.694,3333.3333333333335
197.714,3000.0
197.734,3000.0
197.794,1000.0
197.812,3333.3333333333335
197.838,2307.6923076923076
197.852,4285.714285714285
197.892,1500.0
197.932,1500.0
197.976,1363.6363636363637
197.994,3333.3333333333335
198.034,1500.0
198.052,3333.3333333333335
198.072,3000.0
198.116,1363.6363636363637
198.136,3000.0
198.154,3333.3333333333335
198.172,3333.3333333333335
198.192,3000.0
198.254,967.741935483871
198.274,3000.0
198.294,3000.0
198.312,3333.3333333333335
198.332,3000.0
198.358,2307.6923076923076
198.394,1666.6666666666667
198.414,3000.0
198.432,3333.3333333333335
198.452,3000.0
198.516,937.5
198.534,3333.3333333333335
198.552,3333.3333333333335
198.572,3000.0
198.612,1500.0
198.652,1500.0
198.692,1500.0
198.714,2727.2727272727275
198.736,2727.2727272727275
198.774,1578.9473684210527
198.794,3000.0
198.814,3000.0
198.836,2727.2727272727275
198.852,3750.0
198.874,2727.2727272727275
198.894,3000.0
198.954,1000.0
198.974,3000.0
198.996,2727.2727272727275
199.012,3750.0
199.032,3000.0
199.094,967.741935483871
199.114,3000.0
199.136,2727.2727272727275
199.154,3333.3333333333335
199.174,3000.0
199.254,750.0
199.274,3000.0
199.292,3333.3333333333335
199.332,1500.0
199.372,1500.0
199.412,1500.0
199.432,3000.0
199.472,1500.0
199.494,2727.2727272727275
199.534,1500.0
199.552,3333.3333333333335
199.574,2727.2727272727275
199.614,1500.0
199.652,1578.9473684210527
199.672,3000.0
199.692,3000.0
199.714,2727.2727272727275
199.734,3000.0
199.754,3000.0
199.774,3000.0
199.792,3333.3333333333335
199.812,3000.0
199.832,3000.0
199.85,3333.3333333333335
199.892,1428.5714285714284
199.954,967.741935483871
199.972,3333.3333333333335
199.994,2727.2727272727275
200.012,3333.3333333333335
200.05,1578.9473684210527
200.092,1428.5714285714284
200.132,1500.0
200.152,3000.0
200.172,3000.0
200.194,2727.2727272727275
200.212,3333.3333333333335
200.252,1500.0
200.332,750.0
200.35,3333.3333333333335
200.39,1500.0
200.412,2727.2727272727275
200.432,3000.0
200.452,3000.0
200.47,3333.3333333333335
200.496,2307.6923076923076
200.514,3333.3333333333335
200.532,3333.3333333333335
200.556,2500.0
200.572,3750.0
200.594,2727.2727272727275
200.614,3000.0
200.672,1034.4827586206895
200.696,2500.0
200.712,3750.0
200.734,2727.2727272727275
200.752,3333.3333333333335
200.772,3000.0
200.802,2000.0
200.876,810.8108108108108
200.892,3750.0
200.912,3000.0
200.934,2727.2727272727275
200.974,1500.0
200.994,3000.0
201.012,3333.3333333333335
201.07,1034.4827586206895
201.09,3000.0
201.154,937.5
201.17,3750.0
201.19,3000.0
201.214,2500.0
201.232,3333.3333333333335
201.254,2727.2727272727275
201.272,3333.3333333333335
201.29,3333.3333333333335
201.314,2500.0
201.332,3333.3333333333335
201.352,3000.0
201.386,1764.705882352941
201.414,2142.8571428571427
201.434,3000.0
201.472,1578.9473684210527
201.512,1500.0
201.54,2142.8571428571427
201.612,833.3333333333334
201.654,1428.5714285714284
201.672,3333.3333333333335
201.692,3000.0
201.712,3000.0
201.732,3000.0
201.754,2727.2727272727275
201.77,3750.0
201.792,2727.2727272727275
201.81,3333.3333333333335
201.83,3000.0
201.89,1000.0
201.914,2500.0
201.936,2727.2727272727275
201.954,3333.3333333333335
201.972,3333.3333333333335
201.992,3000.0
202.012,3000.0
202.032,3000.0
202.05,3333.3333333333335
202.07,3000.0
202.11,1500.0
202.134,2500.0
202.174,1500.0
202.192,3333.3333333333335
202.212,3000.0
202.234,2727.2727272727275
202.26,2307.6923076923076
202.3,1500.0
202.332,1875.0
202.354,2727.2727272727275
202.368,4285.714285714285
202.392,2500.0
202.412,3000.0
202.434,2727.2727272727275
202.472,1578.9473684210527
202.49,3333.3333333333335
202.516,2307.6923076923076
202.532,3750.0
202.552,3000.0
202.612,1000.0
202.63,3333.3333333333335
202.652,2727.2727272727275
202.692,1500.0
202.712,3000.0
202.732,3000.0
202.75,3333.3333333333335
202.774,2500.0
202.792,3333.3333333333335
202.83,1578.9473684210527
202.854,2500.0
202.892,1578.9473684210527
202.912,3000.0
202.934,2727.2727272727275
202.952,3333.3333333333335
202.984,1875.0
203.07,697.6744186046512
203.11,1500.0
203.132,2727.2727272727275
203.15,3333.3333333333335
203.168,3333.3333333333335
203.192,2500.0
203.252,1000.0
203.268,3750.0
203.334,909.090909090909
203.352,3333.3333333333335
203.37,3333.3333333333335
203.392,2727.2727272727275
203.412,3000.0
203.432,3000.0
203.45,3333.3333333333335
203.47,3000.0
203.49,3000.0
203.508,3333.3333333333335
203.532,2500.0
203.55,3333.3333333333335
203.57,3000.0
203.652,731.7073170731707
203.67,3333.3333333333335
203.692,2727.2727272727275
203.73,1578.9473684210527
203.814,714.2857142857142
203.85,1666.6666666666667
203.87,3000.0
203.892,2727.2727272727275
203.932,1500.0
203.948,3750.0
203.992,1363.6363636363637
204.014,2727.2727272727275
204.09,789.4736842105264
204.112,2727.2727272727275
204.132,3000.0
204.15,3333.3333333333335
204.17,3000.0
204.21,1500.0
204.23,3000.0
204.25,3000.0
204.29,1500.0
204.37,750.0
204.388,3333.3333333333335
204.408,3000.0
204.446,1578.9473684210527
204.512,909.090909090909
204.528,3750.0
204.568,1500.0
204.588,3000.0
204.608,3000.0
204.65,1428.5714285714284
204.67,3000.0
204.692,2727.2727272727275
204.71,3333.3333333333335
204.73,3000.0
204.792,967.741935483871
204.81,3333.3333333333335
204.872,967.741935483871
204.89,3333.3333333333335
204.912,2727.2727272727275
204.932,3000.0
204.972,1500.0
204.992,3000.0
205.032,1500.0
205.05,3333.3333333333335
205.072,2727.2727272727275
205.092,3000.0
205.124,1875.0
205.192,882.3529411764705
205.208,3750.0
205.25,1428.5714285714284
205.27,3000.0
205.31,1500.0
205.33,3000.0
205.372,1428.5714285714284
205.39,3333.3333333333335
205.41,3000.0
205.468,1034.4827586206895
205.512,1363.6363636363637
205.532,3000.0
205.55,3333.3333333333335
205.568,3333.3333333333335
205.59,2727.2727272727275
205.61,3000.0
205.628,3333.3333333333335
205.712,714.2857142857142
205.726,4285.714285714285
205.75,2500.0
205.782,1875.0
205.87,681.8181818181819
205.888,3333.3333333333335
205.908,3000.0
205.948,1500.0
205.97,2727.2727272727275
205.99,3000.0
206.032,1428.5714285714284
206.05,3333.3333333333335
206.15,600.0
206.206,1071.4285714285713
206.23,2500.0
206.25,3000.0
206.286,1666.6666666666667
206.35,937.5
206.374,2500.0
206.388,4285.714285714285
206.432,1363.6363636363637
206.508,789.4736842105264
206.53,2727.2727272727275
206.57,1500.0
206.59,3000.0
206.61,3000.0
206.628,3333.3333333333335
206.65,2727.2727272727275
206.69,1500.0
206.71,3000.0
206.77,1000.0
206.81,1500.0
206.828,3333.3333333333335
206.85,2727.2727272727275
206.872,2727.2727272727275
206.91,1578.9473684210527
206.99,750.0
207.01,3000.0
207.032,2727.2727272727275
207.062,2000.0
207.094,1875.0
207.106,5000.0
207.15,1363.6363636363637
207.19,1500.0
207.228,1578.9473684210527
207.248,3000.0
207.266,3333.3333333333335
207.29,2500.0
207.312,2727.2727272727275
207.33,3333.3333333333335
207.35,3000.0
207.406,1071.4285714285713
207.43,2500.0
207.446,3750.0
207.49,1363.6363636363637
207.508,3333.3333333333335
207.53,2727.2727272727275
207.59,1000.0
207.608,3333.3333333333335
207.63,2727.2727272727275
207.648,3333.3333333333335
207.68,1875.0
207.712,1875.0
207.724,5000.0
207.77,1304.3478260869565
207.79,3000.0
207.81,3000.0
207.83,3000.0
207.85,3000.0
207.89,1500.0
207.93,1500.0
207.966,1666.6666666666667
208.008,1428.5714285714284
208.03,2727.2727272727275
208.05,3000.0
208.068,3333.3333333333335
208.088,3000.0
208.106,3333.3333333333335
208.146,1500.0
208.172,2307.6923076923076
208.228,1071.4285714285713
208.248,3000.0
208.266,3333.3333333333335
208.296,2000.0
208.368,833.3333333333334
208.388,3000.0
208.408,3000.0
208.426,3333.3333333333335
208.45,2500.0
208.466,3750.0
208.49,2500.0
208.506,3750.0
208.532,2307.6923076923076
208.572,1500.0
208.586,4285.714285714285
208.626,1500.0
208.648,2727.2727272727275
208.668,3000.0
208.712,1363.6363636363637
208.728,3750.0
208.75,2727.2727272727275
208.848,612.2448979591836
208.866,3333.3333333333335
208.89,2500.0
208.906,3750.0
208.932,2307.6923076923076
208.972,1500.0
209.008,1666.6666666666667
209.07,967.741935483871
209.086,3750.0
209.106,3000.0
209.128,2727.2727272727275
209.15,2727.2727272727275
209.188,1578.9473684210527
209.206,3333.3333333333335
209.268,967.741935483871
209.288,3000.0
209.308,3000.0
209.332,2500.0
209.368,1666.6666666666667
209.386,3333.3333333333335
209.406,3000.0
209.446,1500.0
209.47,2500.0
209.51,1500.0
209.53,3000.0
209.568,1578.9473684210527
209.598,2000.0
209.638,1500.0
209.69,1153.8461538461538
209.704,4285.714285714285
209.728,2500.0
209.748,3000.0
209.768,3000.0
209.788,3000.0
209.808,3000.0
209.83,2727.2727272727275
209.85,3000.0
209.868,3333.3333333333335
209.888,3000.0
209.926,1578.9473684210527
209.948,2727.2727272727275
209.968,3000.0
209.986,3333.3333333333335
210.008,2727.2727272727275
210.028,3000.0
210.048,3000.0
210.066,3333.3333333333335
210.086,3000.0
210.106,3000.0
210.17,937.5
210.186,3750.0
210.206,3000.0
210.23,2500.0
210.264,1764.705882352941
210.304,1500.0
210.346,1428.5714285714284
210.386,1500.0
210.406,3000.0
210.428,2727.2727272727275
210.448,3000.0
210.468,3000.0
210.488,3000.0
210.506,3333.3333333333335
210.53,2500.0
210.548,3333.3333333333335
210.588,1500.0
210.606,3333.3333333333335
210.628,2727.2727272727275
210.648,3000.0
210.668,3000.0
210.688,3000.0
210.704,3750.0
210.748,1363.6363636363637
210.768,3000.0
210.788,3000.0
210.868,750.0
210.888,3000.0
210.908,3000.0
210.946,1578.9473684210527
210.986,1500.0
211.026,1500.0
211.048,2727.2727272727275
211.088,1500.0
211.108,3000.0
211.166,1034.4827586206895
211.188,2727.2727272727275
211.212,2500.0
211.226,4285.714285714285
211.288,967.741935483871
211.308,3000.0
211.348,1500.0
211.368,3000.0
211.428,1000.0
211.446,3333.3333333333335
211.466,3000.0
211.49,2500.0
211.586,625.0
211.606,3000.0
211.628,2727.2727272727275
211.67,1428.5714285714284
211.71,1500.0
211.75,1500.0
211.786,1666.6666666666667
211.808,2727.2727272727275
211.83,2727.2727272727275
211.848,3333.3333333333335
211.866,3333.3333333333335
211.888,2727.2727272727275
211.928,1500.0
211.946,3333.3333333333335
212.008,967.741935483871
212.048,1500.0
212.068,3000.0
212.09,2727.2727272727275
212.106,3750.0
212.13,2500.0
212.148,3333.3333333333335
212.168,3000.0
212.188,3000.0
212.228,1500.0
212.246,3333.3333333333335
212.31,937.5
212.328,3333.3333333333335
212.346,3333.3333333333335
212.37,2500.0
212.404,1764.705882352941
212.446,1428.5714285714284
212.486,1500.0
212.504,3333.3333333333335
212.524,3000.0
212.548,2500.0
212.586,1578.9473684210527
212.628,1428.5714285714284
212.648,3000.0
212.668,3000.0
212.688,3000.0
212.75,967.741935483871
212.768,3333.3333333333335
212.788,3000.0
212.806,3333.3333333333335
212.826,3000.0
212.846,3000.0
212.886,1500.0
212.904,3333.3333333333335
212.944,1500.0
213.01,909.090909090909
213.026,3750.0
213.046,3000.0
213.066,3000.0
213.098,1875.0
213.17,833.3333333333334
213.186,3750.0
213.224,1578.9473684210527
213.248,2500.0
213.266,3333.3333333333335
213.288,2727.2727272727275
213.306,3333.3333333333335
213.326,3000.0
213.37,1363.6363636363637
213.386,3750.0
213.444,1034.4827586206895
213.466,2727.2727272727275
213.488,2727.2727272727275
213.506,3333.3333333333335
213.528,2727.2727272727275
213.546,3333.3333333333335
213.568,2727.2727272727275
213.588,3000.0
213.606,3333.3333333333335
213.646,1500.0
213.684,1578.9473684210527
213.766,731.7073170731707
213.786,3000.0
213.806,3000.0
213.836,2000.0
213.908,833.3333333333334
213.926,3333.3333333333335
213.964,1578.9473684210527
213.986,2727.2727272727275
214.006,3000.0
214.028,2727.2727272727275
214.046,3333.3333333333335
214.088,1428.5714285714284
214.106,3333.3333333333335
214.208,588.2352941176471
214.226,3333.3333333333335
214.246,3000.0
214.266,3000.0
214.284,3333.3333333333335
214.324,1500.0
214.346,2727.2727272727275
214.368,2727.2727272727275
