t_s,r_amp
0.084,-0.02057
0.162,0.06667
0.194,0.02898
0.258,0.12673
0.28,0.13158
0.3,0.13041
0.344,0.30651
0.382,0.1044
0.422,0.04119
0.52,-0.04349
0.54,-0.03005
0.618,0.08073
0.682,0.04438
0.7,0.0606
0.74,0.06451
0.76,0.05737
0.776,0.05782
0.8,0.06379
0.82,0.08046
0.842,0.07767
0.876,0.08463
0.9,0.08338
1.018,0.07709
1.08,0.04353
1.104,0.32088
1.142,-0.05112
1.2,0.05301
1.238,0.0438
1.258,0.04843
1.3,0.03315
1.318,0.03818
1.38,0.0801
1.438,-0.0274
1.482,-0.01527
1.5,-0.0124
1.52,-0.0217
1.54,-0.02655
1.558,-0.02381
1.6,-0.00952
1.618,-0.00103
1.64,-0.00467
1.662,0.00076
1.702,-0.02556
1.78,0.08437
1.8,0.08221
1.822,0.08001
1.858,0.37645
1.896,-0.0553
1.936,0.09793
2.0,0.0571
2.04,0.05552
2.12,0.15112
2.136,0.15211
2.22,0.04614
2.238,0.04057
2.258,0.03827
2.28,0.023
2.298,0.01447
2.32,0.00485
2.336,0.00368
2.52,-0.00175
2.558,0.01375
2.602,0.31756
2.642,-0.16249
2.7,0.00162
2.74,-0.01622
2.78,-0.03234
2.84,0.04115
2.882,0.10045
2.98,0.05975
3.038,0.023
3.056,0.0212
3.078,0.02875
3.118,0.03482
3.158,0.01887
3.194,-0.04353
3.258,0.08895
3.278,0.10341
3.342,0.41792
3.382,-0.04847
3.422,0.13984
3.438,0.154
3.474,0.13077
3.498,0.13014
3.6,0.14753
3.68,0.00557
3.72,0.00755
3.736,-0.00593
3.778,0.00166
3.8,-0.00198
3.82,-0.01608
3.862,0.00395
3.918,-0.03684
3.994,0.03648
4.016,0.02426
4.038,0.0252
4.066,0.31774
4.14,0.0469
4.178,0.04128
4.2,0.03145
4.238,0.05265
4.258,0.0323
4.282,0.03971
4.322,0.09883
4.34,0.10009
4.422,-0.01478
4.438,0.00485
4.48,0.01132
4.54,0.0323
4.6,0.03495
4.698,0.05112
4.738,0.03414
4.778,0.3314
4.862,0.06536
4.88,0.0717
4.9,0.06437
4.936,0.06932
4.978,0.07242
5.038,0.13773
5.056,0.13818
5.136,-0.01271
5.176,-0.0257
5.214,-0.00952
5.238,-0.02484
5.258,-0.02911
5.4,-0.09865
5.422,-0.09052
5.476,0.26522
5.56,0.05665
5.58,0.07363
5.598,0.06056
5.652,0.03747
5.678,0.02219
5.718,0.02399
5.758,0.03827
5.92,0.04268
5.938,0.04344
5.978,0.06824
5.996,0.08068
6.02,0.0482
6.084,0.07277
6.1,0.0721
6.114,0.06846
6.138,0.05193
6.168,0.37043
6.238,0.11761
6.258,0.11914
6.32,0.11532
6.438,0.22731
6.54,0.05346
6.576,0.04546
6.598,0.04416
6.642,-0.02017
6.678,0.00252
6.776,0.05323
6.802,0.04438
6.822,0.05921
6.852,0.41217
6.892,-0.09474
6.936,0.05611
6.984,0.02875
7.022,0.00642
7.138,0.03347
7.338,0.01334
7.458,0.06056
7.514,0.34267
7.546,-0.12021
7.556,-0.11949
7.618,-0.00279
7.7,0.03589
7.714,0.05467
7.766,0.0571
7.798,0.07143
7.898,-0.00867
7.958,0.02174
7.994,0.01406
8.1,0.05885
8.12,0.07331
8.17,0.36724
8.212,-0.08019
8.27,0.12457
8.304,0.10085
8.346,0.09218
8.386,0.07457
8.406,0.16334
8.446,0.15849
8.512,0.0155
8.524,0.01114
8.66,-0.00948
8.752,0.02102
8.828,0.31823
8.91,0.01101
8.976,-0.05229
8.998,-0.04497
9.096,0.23378
9.12,0.21815
9.18,0.2442
9.256,-0.0133
9.336,-0.06294
9.398,0.0354
9.44,0.04852
9.478,0.26626
9.578,0.40345
9.694,0.05018
9.912,0.05876
9.956,0.06451
9.974,0.0509
10.04,0.08576
10.078,0.08365
10.122,0.32079
10.204,0.06698
10.398,0.02978
10.496,0.02462
10.574,0.01635
10.682,0.02147
10.762,0.34761
10.856,0.13922
11.018,0.02965
11.236,-0.03023
11.354,0.02835
11.418,0.33921
11.498,0.08225
11.578,0.04708
11.618,0.04762
11.694,0.09384
11.854,0.08782
11.876,0.08553
11.894,0.08445
12.032,0.07601
12.056,0.06002
12.102,0.33993
12.142,-0.11038
12.178,0.08127
12.374,-0.00427
12.416,-0.01307
12.574,0.08162
12.618,0.0823
12.738,0.12107
12.774,0.11572
12.802,0.41585
12.878,0.14407
13.078,0.05606
13.178,0.02965
13.196,0.03095
13.336,-0.00701
13.456,0.0137
13.522,0.32115
13.598,0.06334
13.798,0.07552
13.854,0.05588
14.07,-0.00701
14.176,0.10377
14.248,0.38688
14.288,-0.06271
14.33,0.14501
14.516,0.02583
14.634,0.0372
14.714,0.00813
14.756,0.0027
14.774,0.00341
14.894,0.02426
14.966,0.25193
15.052,-0.02044
15.256,-0.03495
15.372,-0.03634
15.558,-0.01689
15.738,0.42232
15.816,0.14519
16.014,0.11244
16.134,0.05171
16.456,0.04982
16.472,0.04946
16.538,0.38903
16.616,0.0858
16.814,0.07107
16.934,0.01981
17.132,0.00382
17.176,-0.02902
17.296,0.04789
17.334,0.4123
17.414,0.10153
17.612,0.06878
17.734,0.00364
17.834,0.00449
17.914,4e-05
17.954,0.00094
18.074,0.05373
18.142,0.40381
18.216,0.12704
18.412,0.0633
18.574,0.00427
18.67,-0.00872
18.814,0.0403
18.896,0.27924
18.938,-0.12125
18.992,0.06729
19.174,0.03567
19.356,0.02534
19.376,0.02381
19.516,0.0372
19.606,0.28589
19.694,0.06127
19.754,0.02898
19.874,0.07152
20.052,0.01388
20.154,0.01464
20.256,0.05207
20.334,0.36064
20.412,0.09272
20.62,0.05445
20.696,-0.02772
20.812,0.01887
20.834,0.02084
20.992,0.0602
21.06,0.34788
21.132,0.08445
21.232,0.06918
21.314,0.16496
21.39,0.20404
21.438,0.17542
21.672,0.0721
21.752,0.28602
21.794,-0.10602
21.838,0.05831
22.032,-0.00031
22.234,-0.01155
22.334,0.03634
22.414,0.28733
22.456,-0.12093
22.494,0.07502
22.612,0.02394
22.694,0.06972
22.912,0.00305
23.034,0.04587
23.09,0.35812
23.176,0.0942
23.356,0.06932
23.516,-0.00588
23.596,0.0027
23.734,0.04479
23.78,0.35781
23.854,0.092
24.052,0.06918
24.292,0.03221
24.432,0.05916
24.51,0.35453
24.594,0.08333
24.792,0.04438
24.994,0.00535
25.014,0.0022
25.238,0.3544
25.28,-0.1155
25.312,0.09101
25.514,0.0566
25.714,0.01554
25.736,0.01721
25.772,0.01905
25.834,-0.02349
25.932,0.06842
25.95,0.06357
25.99,0.39105
26.076,0.10494
26.272,0.07012
26.412,0.02561
26.496,0.0208
26.57,0.01074
26.672,0.04942
26.752,0.32578
26.792,-0.1177
26.83,0.0624
27.034,0.03553
27.112,-0.01402
27.256,0.01249
27.494,0.35682
27.572,0.10683
27.772,0.08109
27.874,0.01649
27.994,0.00472
28.152,0.05476
28.174,0.05391
28.228,0.38903
28.314,0.09847
28.39,0.0469
28.492,0.08392
28.512,0.08715
28.634,0.01047
28.714,0.01828
28.914,0.05341
28.982,0.38723
29.074,0.08859
29.252,0.08082
29.414,0.00755
29.512,0.0088
29.592,-0.02996
29.652,0.0319
29.746,0.33602
29.836,0.0973
30.014,0.08823
30.172,0.04057
30.232,0.05737
30.272,0.05683
30.312,0.05126
30.43,0.07587
30.474,0.07134
30.516,0.40242
30.594,0.10063
30.672,0.04227
30.792,0.0624
30.87,-0.00157
30.892,0.00139
31.012,0.0221
31.086,-0.01995
31.212,0.06092
31.24,0.30889
31.282,-0.09986
31.314,0.05615
31.352,0.0487
31.392,0.00436
31.516,0.0168
31.67,-0.01653
31.732,-0.02066
31.75,-0.03131
31.774,-0.04676
31.854,0.06042
31.892,0.07709
31.928,0.23917
31.958,-0.05189
31.97,-0.01505
32.03,0.08607
32.07,0.06676
32.21,0.03791
32.252,0.00934
32.31,0.0022
32.394,0.00139
32.432,-0.00701
32.494,0.06801
32.512,0.06797
32.532,0.06199
32.58,0.15391
32.612,0.06631
32.624,0.01222
32.656,0.02947
32.732,0.00903
32.75,0.00988
32.872,0.00827
32.932,0.03243
32.952,0.03118
32.99,0.02907
33.056,0.0478
33.088,0.01577
33.17,0.09654
33.192,0.08589
33.238,0.24218
33.278,0.00728
33.31,0.05606
33.41,0.02556
33.514,0.03275
33.57,-0.01851
33.612,-0.02116
33.634,-0.0177
33.672,-0.01123
33.732,0.00975
33.752,0.01491
33.872,0.08167
33.89,0.07534
33.936,0.30853
33.978,-0.04245
34.012,0.0801
34.072,0.04555
34.112,0.04982
34.21,0.05647
34.334,0.02785
34.352,0.02907
34.37,0.02498
34.392,0.02588
34.41,0.02174
34.43,0.02273
34.49,0.0164
34.592,0.0557
34.61,0.05898
34.676,0.33382
34.716,-0.09888
34.752,0.08895
34.95,0.05368
35.01,-0.00449
35.09,0.01828
35.112,0.01959
35.13,0.01977
35.19,0.01995
35.368,0.05853
35.392,0.05741
35.426,0.3725
35.51,0.11464
35.59,0.04744
35.71,0.05314
35.812,0.02579
35.85,0.0159
35.872,0.01101
35.948,0.00845
36.132,0.05678
36.188,0.39024
36.272,0.11985
36.472,0.06631
36.572,0.02143
36.61,0.02093
36.772,-0.0142
36.91,0.04798
36.96,0.35107
37.05,0.09663
37.148,0.0274
37.25,0.03046
37.392,0.01923
37.612,0.05782
37.632,0.05719
37.67,0.28557
37.712,-0.08369
37.752,0.07924
37.952,0.01509
37.99,0.00566
38.152,0.0305
38.21,-0.00319
38.31,0.06828
38.364,0.3314
38.448,0.09506
38.632,0.06033
38.81,0.0155
38.872,0.02048
38.91,-0.01806
38.99,0.05207
39.064,0.34716
39.15,0.09807
39.35,0.05314
39.472,0.00939
39.59,0.01581
39.63,-0.02588
39.712,0.05108
39.786,0.36046
39.87,0.10844
40.052,0.06285
40.29,0.01514
40.412,0.04942
40.488,0.37394
40.568,0.11123
40.752,0.06186
40.912,0.00651
40.972,0.00822
41.13,0.04865
41.192,0.34649
41.232,-0.10656
41.29,0.09807
41.45,0.04497
41.61,0.00427
41.69,0.0142
41.81,0.06114
41.87,0.31437
41.912,-0.09375
41.952,0.09672
42.01,0.06487
42.148,0.0535
42.31,0.01869
42.37,0.01945
42.492,0.06199
42.558,0.33319
42.598,-0.10993
42.632,0.09591
42.832,0.05907
42.97,0.01249
43.05,0.01015
43.212,0.05202
43.272,0.36603
43.312,-0.10463
43.35,0.09618
43.548,0.05912
43.692,0.01343
43.77,0.01141
43.83,-0.02354
43.912,0.0535
43.984,0.36136
44.07,0.10957
44.25,0.05624
44.35,0.004
44.392,0.01038
44.492,0.01348
44.63,0.04991
44.702,0.35997
44.788,0.10799
44.97,0.0584
45.112,0.01289
45.13,0.01168
45.19,0.01599
45.21,0.01554
45.348,0.04151
45.428,0.39748
45.51,0.11662
45.708,0.06289
45.77,-0.00809
45.83,0.01384
45.89,0.01123
45.95,0.00845
46.01,-0.0385
46.11,0.03437
46.166,0.34528
46.252,0.10009
46.33,0.05948
46.432,0.03994
46.51,-0.00678
46.59,0.0115
46.608,0.01222
46.67,0.02125
46.79,0.04811
46.874,0.26909
46.894,-0.46545
46.916,-0.1035
46.952,0.07075
47.112,0.02767
47.148,0.04052
47.188,0.0128
47.208,0.00719
47.23,0.00755
47.268,0.01172
47.332,0.02507
47.388,0.03194
47.408,0.0013
47.488,0.06774
47.51,0.06756
47.562,0.3247
47.652,0.08931
47.832,0.0628
47.99,0.01869
48.048,0.02071
48.19,0.04892
48.208,0.04452
48.268,0.38261
48.348,0.10979
48.43,0.06285
48.532,0.06307
48.688,0.0088
48.728,0.00957
48.788,0.01442
48.93,0.04335
48.988,0.37573
49.03,-0.12048
49.068,0.1031
49.27,0.05903
49.33,-0.01375
49.39,0.00854
49.468,0.00845
49.65,0.03567
49.67,0.03697
49.688,0.03854
49.728,0.38831
49.808,0.11954
50.008,0.06496
50.126,0.01325
50.148,0.01779
50.21,0.01065
50.266,0.00678
50.368,0.04425
50.448,0.39047
50.526,0.11199
50.608,0.05624
50.708,0.03998
50.73,0.04151
50.808,-0.00988
50.83,-0.00584
50.848,-0.00728
50.95,0.00359
51.07,0.03419
51.108,0.02965
51.15,0.27857
51.192,-0.10188
51.23,0.08693
51.308,0.07412
51.388,0.02763
51.428,0.04528
51.528,0.01815
51.608,0.03482
51.648,0.0354
51.77,0.06424
51.788,0.05782
51.85,0.34469
51.89,-0.10094
51.928,0.09524
51.988,0.06357
52.008,0.05889
52.126,0.05647
52.208,0.00319
52.228,0.00606
52.288,0.0177
52.308,0.01613
52.328,0.01801
52.368,0.01348
52.508,0.046
52.53,0.03814
52.558,0.35273
52.596,-0.11554
52.648,0.1057
52.706,0.06038
52.726,0.05948
52.83,0.05368
52.968,0.01406
53.008,0.00094
53.028,0.00418
53.048,0.00413
53.068,0.00701
53.088,0.01249
53.206,0.03769
53.23,0.04155
53.248,0.04456
53.288,0.39932
53.328,-0.10894
53.368,0.1159
53.446,0.06047
53.468,0.05449
53.506,0.03396
53.548,0.05386
53.566,0.05629
53.686,0.01617
53.768,0.01038
53.788,0.01042
53.824,0.00921
53.95,0.03832
53.966,0.03688
53.988,0.0372
54.016,0.33476
54.108,0.0973
54.208,0.02803
54.268,0.01689
54.288,0.02754
54.308,0.02305
54.368,-0.0142
54.408,-0.01002
54.428,-0.00054
54.468,-0.00175
54.508,0.01469
54.528,0.01384
54.666,0.06307
54.688,0.05737
54.722,0.32632
54.806,0.09721
54.868,0.07947
54.948,0.04236
54.986,0.05413
55.068,0.01276
55.086,0.01851
55.144,0.02291
55.166,0.02498
55.186,0.02915
55.246,0.03145
55.368,0.05737
55.388,0.05588
55.426,0.35682
55.466,-0.1062
55.506,0.10224
55.586,0.05517
55.65,0.027
55.706,0.06321
55.808,0.00764
55.848,0.01289
55.866,0.00889
55.928,0.00894
55.946,0.00916
55.966,0.00939
56.004,-0.03095
56.084,0.04057
56.108,0.04191
56.126,0.03877
56.158,0.35812
56.248,0.10296
56.366,0.03306
56.426,0.06253
56.446,0.05782
56.566,0.00418
56.586,0.00418
56.628,-0.00216
56.644,-0.0027
56.666,-0.00103
56.688,-0.00117
56.708,-0.00207
56.728,-0.00247
56.75,-0.03562
56.846,0.04025
56.866,0.03747
56.906,0.3513
56.946,-0.12268
56.986,0.09007
57.044,0.05467
57.126,0.01725
57.184,0.03396
57.226,-0.00031
57.248,-0.00265
57.304,0.01123
57.328,0.01505
57.346,0.01276
57.368,0.01527
57.386,0.01721
57.406,0.02444
57.446,0.02031
57.566,0.04789
57.584,0.0487
57.608,0.04762
57.648,0.34627
57.69,-0.11267
57.726,0.09802
57.766,0.07614
57.784,0.06559
57.868,0.02215
57.906,0.03989
57.922,0.04151
57.986,0.00606
58.008,0.01181
58.028,0.01038
58.046,0.02242
58.086,0.02489
58.108,0.02516
58.146,0.02376
58.168,0.0239
58.226,0.00665
58.348,0.04555
58.366,0.0456
58.386,0.04411
58.416,0.35112
58.504,0.1057
58.566,0.06752
58.604,0.04366
58.686,0.05481
58.746,0.00202
58.768,-0.00364
58.788,0.00791
58.808,0.01024
58.824,0.01244
58.846,0.01316
58.884,0.00629
58.908,0.01181
58.946,0.00809
58.964,0.00701
59.002,-0.02668
59.088,0.03877
59.106,0.03953
59.158,0.26145
59.244,0.06213
59.284,0.04879
59.366,0.01222
59.386,0.00508
59.404,0.00427
59.426,0.01316
59.468,0.00737
59.504,0.01752
59.524,0.01712
59.548,0.02588
59.586,0.03019
59.626,0.03176
59.666,0.03616
59.704,0.02264
59.726,-0.00952
59.788,0.05085
59.806,0.0557
59.826,0.04968
59.844,0.04807
59.882,0.29537
59.922,-0.09106
59.966,0.09182
59.986,0.07583
60.026,0.06927
60.044,0.06424
60.104,0.02331
60.126,0.02727
60.166,0.04115
60.206,0.01756
60.228,0.01078
60.244,0.01181
60.266,0.01348
60.326,0.02821
60.344,0.02565
60.386,0.02839
60.406,0.02907
60.444,-0.01132
60.524,0.04798
60.566,0.03935
60.602,0.34483
60.642,-0.10741
60.686,0.09905
60.744,0.0659
60.766,0.065
60.844,0.03441
60.884,0.05094
60.968,0.0075
60.986,0.01608
61.004,0.0221
61.022,0.02331
61.064,0.01999
61.108,0.02183
61.168,0.01455
61.206,-0.03037
61.288,0.03567
61.306,0.04124
61.324,0.03922
61.364,0.3707
61.444,0.11842
61.526,0.06379
61.562,0.03845
61.606,0.02102
61.644,0.04313
61.766,0.01995
61.788,0.01851
61.824,0.00764
61.866,0.01155
61.884,0.00687
61.904,0.01015
61.922,0.00175
62.026,0.02857
62.066,0.03181
62.108,0.27439
62.15,-0.1026
62.188,0.07421
62.204,0.07277
62.248,0.0575
62.344,0.00988
62.384,0.03001
62.426,0.0102
62.446,0.01509
62.486,0.01945
62.546,0.0301
62.566,0.03037
62.584,0.023
62.604,0.02718
62.626,0.02929
62.646,0.02331
62.746,0.05732
62.784,0.05624
62.802,0.03913
62.834,0.31006
62.874,-0.10642
62.906,0.09003
62.966,0.06437
62.986,0.06127
63.064,0.03275
63.106,0.0509
63.122,0.04371
63.142,0.02331
63.166,0.01042
63.186,0.00993
63.246,0.02516
63.264,0.02902
63.324,0.02718
63.366,0.02691
63.406,0.01676
63.426,0.00898
63.446,-0.02641
63.506,0.02588
63.524,0.03899
63.548,0.03419
63.566,0.03432
63.606,0.37111
63.646,-0.10058
63.684,0.1044
63.726,0.08176
63.742,0.07026
63.764,0.06226
63.844,0.02008
63.888,0.0473
63.924,0.00809
63.944,-0.00288
64.044,0.03482
64.064,0.02525
64.084,0.0248
64.104,0.023
64.122,0.02183
64.146,0.01995
64.166,0.01608
64.186,0.00728
64.204,0.00341
64.226,-0.0248
64.346,0.04892
64.384,0.33957
64.424,-0.10548
64.466,0.08922
64.544,0.05036
64.608,0.00782
64.662,0.02695
64.706,0.00472
64.724,0.0
64.746,0.00863
64.786,0.02219
64.804,0.02147
64.824,0.01936
64.846,0.01204
64.886,0.02331
64.906,0.02008
64.964,-0.00076
65.066,0.04564
65.084,0.04295
65.106,0.04173
65.15,0.32389
65.19,-0.11662
65.224,0.09631
65.264,0.0703
65.286,0.05858
65.306,0.05782
65.386,0.01851
65.406,0.02677
65.424,0.04609
65.504,0.01438
65.526,0.01491
65.544,0.02646
65.586,0.03185
65.604,0.03374
65.622,0.03073
65.644,0.03432
65.664,0.03396
65.682,0.02219
65.704,0.02264
65.824,0.04928
65.844,0.05072
65.866,0.04919
65.882,0.04474
65.912,0.36459
65.952,-0.11716
65.986,0.1093
66.066,0.06357
66.106,0.03571
66.146,0.02197
66.166,0.03738
66.186,0.06244
66.204,0.05993
66.262,0.0
66.284,0.01042
66.326,0.02282
66.346,0.02264
66.364,0.02156
66.386,0.01172
66.422,0.019
66.446,0.00966
66.462,0.01312
66.504,-0.02659
66.586,0.04438
66.604,0.04092
66.624,0.04744
66.66,0.34532
66.74,0.10027
66.782,0.07623
66.804,0.06608
66.844,0.04802
66.884,0.00993
66.906,0.01599
66.942,0.0336
66.984,-0.00274
67.006,-0.00539
67.026,0.00022
67.066,0.00809
67.084,0.00975
67.124,0.0146
67.166,0.01707
67.186,0.01671
67.204,0.01455
67.302,0.0416
67.322,0.04726
67.384,0.30422
67.424,-0.09986
67.466,0.09043
67.524,0.06595
67.622,0.02156
67.662,0.03684
67.722,0.00961
67.744,0.01244
67.762,0.01725
67.786,0.01029
67.804,0.02161
67.824,0.01694
67.844,0.02606
67.886,0.02466
67.906,0.0274
67.922,0.02893
68.004,0.03477
68.024,0.04928
68.042,0.04632
68.064,0.05207
68.108,0.31733
68.148,-0.11177
68.186,0.10224
68.202,0.09223
68.282,0.06101
68.346,0.0212
68.384,0.05049
68.422,0.01774
68.442,0.01047
68.466,0.00714
68.484,0.01927
68.506,0.02713
68.544,0.02902
68.604,0.03005
68.622,0.02835
68.644,0.02646
68.746,0.04587
68.762,0.04524
68.78,0.04272
68.802,0.04052
68.83,0.34016
68.924,0.09775
68.962,0.07601
68.982,0.07277
69.044,0.0336
69.086,0.03917
69.104,0.05373
69.184,-0.00243
69.224,0.02031
69.242,0.01635
69.302,0.00809
69.324,0.01429
69.342,0.00997
69.362,0.01397
69.384,0.01096
69.484,0.04411
69.504,0.04092
69.524,0.04632
69.566,0.36724
69.606,-0.11294
69.644,0.11932
69.682,0.08657
69.782,0.03338
69.824,0.04919
69.844,0.05876
69.864,0.04811
69.904,-0.00036
69.924,0.004
69.944,0.01411
69.962,0.02408
69.982,0.02426
70.002,0.0274
70.046,0.00759
70.064,0.01685
70.082,0.01469
70.102,0.01671
70.124,0.01065
70.144,-0.00162
70.178,-0.04609
70.286,0.04528
70.3,0.0473
70.336,0.35525
70.422,0.10952
70.542,0.02331
70.56,0.01128
70.604,0.03234
70.644,0.02197
70.664,0.00126
70.682,0.00705
70.742,0.0097
70.782,0.01208
70.802,0.00153
70.826,0.00265
70.844,0.01375
70.862,0.01294
70.882,0.01024
70.902,-0.01276
70.982,0.04546
71.004,0.04438
71.022,0.03697
71.062,0.30408
71.104,-0.09923
71.146,0.07686
71.184,0.05732
71.202,0.05773
71.224,0.0535
71.242,0.04304
71.284,0.01887
71.304,0.01797
71.322,0.03005
71.342,0.04043
71.4,0.01909
71.424,0.02426
71.44,0.02246
71.462,0.02799
71.484,0.03522
71.504,0.04016
71.544,0.02785
71.562,0.03396
71.584,0.02911
71.606,0.02835
71.642,-0.01042
71.724,0.05409
71.762,0.04546
71.798,0.36432
71.84,-0.09959
71.882,0.11015
71.922,0.08005
71.94,0.06909
72.024,0.02556
72.042,0.03711
72.084,0.05957
72.142,0.00355
72.164,0.01074
72.204,0.02174
72.222,0.02246
72.302,0.01397
72.322,0.01402
72.344,0.0124
72.362,0.01002
72.402,-0.03306
72.482,0.04447
72.502,0.0478
72.522,0.04991
72.558,0.37142
72.642,0.10494
72.704,0.06433
72.72,0.05463
72.762,0.03414
72.782,0.02331
72.802,0.03482
72.844,0.05768
72.904,-0.00319
72.922,0.00364
72.944,0.01384
72.98,0.02376
73.004,0.01509
73.042,0.00993
73.084,0.008
73.104,0.00171
73.124,0.00319
73.14,0.00094
73.162,-0.0009
73.186,-0.03576
73.264,0.05049
73.282,0.04632
73.298,0.04816
73.344,0.34424
73.386,-0.12906
73.424,0.09326
73.48,0.05768
73.5,0.05593
73.542,0.02907
73.562,0.01181
73.584,0.01586
73.622,0.04632
73.684,0.00238
73.704,0.00669
73.722,0.00526
73.74,0.00521
73.762,0.01941
73.782,0.01545
73.804,0.00916
73.824,0.00382
73.86,0.01101
73.882,0.0106
73.92,-0.0221
74.006,0.0438
74.022,0.04757
74.042,0.03702
74.078,0.30727
74.12,-0.11693
74.164,0.08859
74.224,0.05782
74.24,0.0531
74.278,0.02331
74.302,0.01819
74.364,0.04043
74.42,0.00755
74.442,0.01545
74.464,0.13603
74.484,0.14851
74.502,0.14182
74.544,0.11136
74.6,0.07048
74.744,0.05382
74.76,0.04402
74.782,0.04205
74.826,0.35633
74.864,-0.13315
74.904,0.08679
74.962,0.05269
74.984,0.04703
75.0,0.0442
75.042,0.0208
75.1,0.0611
75.162,-0.02013
75.224,0.00889
75.24,0.00571
75.282,-0.00054
75.3,0.00099
75.32,0.00386
75.36,-0.00301
75.382,-0.00472
75.402,-0.00647
75.422,-0.04528
75.502,0.04366
75.52,0.04236
75.54,0.04007
75.578,0.37973
75.66,0.10692
75.72,0.07277
75.74,0.06074
75.76,0.04164
75.804,0.01137
75.842,0.05058
75.862,0.0495
75.92,-0.00467
75.94,-0.00238
75.962,0.00413
75.984,0.00934
76.0,0.00867
76.038,0.00288
76.062,0.01038
76.084,0.0049
76.22,0.02907
76.242,0.03131
76.264,0.02821
76.3,0.29141
76.342,-0.1035
76.382,0.07691
76.4,0.07026
76.5,0.01469
76.564,0.01999
76.582,0.02754
76.622,0.00827
76.64,0.00449
76.662,0.00872
76.682,0.01222
76.722,0.02174
76.744,0.02462
76.762,0.02331
76.782,0.02498
76.804,0.0243
76.84,0.02138
76.862,-0.01168
76.94,0.04708
76.962,0.04771
77.022,0.36567
77.062,-0.09685
77.104,0.09923
77.162,0.06882
77.182,0.07767
77.222,0.05013
77.282,0.07246
77.304,0.08297
77.362,0.01676
77.404,0.02965
77.422,0.03522
77.442,0.03216
77.52,0.02331
77.542,0.02511
77.564,0.02475
77.686,0.0487
77.704,0.05229
77.72,0.05018
77.742,0.04187
77.772,0.35723
77.844,0.10256
77.862,0.10799
77.902,0.07075
77.922,0.06523
77.938,0.05579
77.962,0.04057
78.04,0.06469
78.058,0.06577
78.122,-0.00845
78.142,0.00072
78.162,0.01289
78.182,0.01491
78.24,4e-05
78.262,0.00162
78.302,0.00018
78.322,-0.00553
78.34,-0.00831
78.378,-0.04757
78.444,0.03526
78.46,0.04052
78.482,0.04272
78.502,0.03863
78.536,0.38113
78.622,0.11523
78.722,0.05521
78.82,0.07817
78.9,0.00211
78.922,4e-05
78.94,0.00687
78.982,0.00409
79.022,0.00162
79.04,0.00355
79.064,0.00153
79.084,0.0058
79.222,0.04762
79.26,0.05193
79.306,0.32776
79.348,-0.1279
79.382,0.09074
79.522,0.01801
79.542,0.0221
79.564,0.02947
79.582,0.04331
79.624,0.01397
79.66,0.00921
79.702,0.01819
79.724,0.01959
79.762,0.0208
79.78,0.01577
79.82,0.02309
79.938,0.03908
79.98,0.04429
80.026,0.29056
80.07,-0.12861
80.122,0.07853
80.14,0.06451
80.16,0.05027
80.182,0.04825
80.198,0.04205
80.218,0.03167
80.26,0.02179
80.28,0.03059
80.302,0.04295
80.322,0.03769
80.362,0.01334
80.38,0.01491
80.402,0.00665
80.422,0.01905
80.462,0.02457
80.482,0.02763
80.5,0.02224
80.52,0.02534
80.562,0.02641
80.578,0.01617
80.616,-0.02421
80.682,0.05207
80.742,0.04461
80.772,0.34631
80.862,0.11734
80.88,0.09474
80.9,0.08302
80.92,0.07035
80.94,0.07439
80.982,0.04407
81.002,0.04007
81.022,0.05319
81.042,0.07179
81.062,0.06595
81.122,0.00139
81.142,0.00997
81.162,0.01622
81.178,0.02066
81.2,0.02331
81.22,0.02084
81.24,0.01491
81.264,0.01532
81.28,0.01815
81.302,0.01783
81.342,0.00283
81.4,-0.0438
81.462,0.03841
81.502,0.04766
81.52,0.04753
81.556,0.38382
81.644,0.12291
81.72,0.07835
81.74,0.06289
81.824,0.06357
81.842,0.06896
81.92,0.01105
81.942,0.02246
81.98,0.02556
82.022,0.00916
82.06,0.01819
82.082,0.00737
82.12,0.00827
82.144,0.00099
82.158,-0.00337
82.182,-0.02974
82.26,0.04546
82.278,0.04263
82.3,0.04429
82.344,0.31554
82.384,-0.11554
82.424,0.0832
82.48,0.05804
82.502,0.0451
82.52,0.03199
82.56,0.00755
82.582,0.00822
82.602,0.02579
82.622,0.03275
82.718,0.01527
82.76,0.02013
82.782,0.02426
82.8,0.01995
82.82,0.02547
82.84,0.0283
82.86,0.02035
82.882,0.02331
82.902,0.01208
82.938,-0.03216
83.024,0.04272
83.042,0.04263
83.06,0.03971
83.098,0.31221
83.138,-0.12129
83.184,0.08001
83.242,0.04977
83.258,0.04955
83.362,0.05157
83.378,0.04632
83.4,0.03688
83.422,0.00961
83.438,0.00867
83.46,0.01168
83.48,0.00687
83.502,0.01891
83.522,0.02713
83.562,0.02475
83.6,0.02691
83.618,0.02296
83.64,0.01442
83.662,0.01469
83.68,0.0093
83.702,-0.02066
83.782,0.05534
83.802,0.05782
83.818,0.04789
83.862,0.38759
83.902,-0.11657
83.942,0.10314
84.002,0.06437
84.02,0.0628
84.078,0.03181
84.142,0.07709
84.2,0.00858
84.24,0.01442
84.26,0.02102
84.284,0.01977
84.302,0.02727
84.318,0.0133
84.34,0.0137
84.398,0.00777
84.458,-0.03216
84.522,0.04384
84.54,0.04452
84.56,0.04919
84.582,0.04798
84.616,0.32663
84.702,0.10171
84.74,0.06923
84.76,0.06222
84.78,0.0575
84.818,0.0226
84.882,0.03576
84.9,0.03998
84.92,0.01927
84.962,0.0155
84.978,0.01455
85.022,0.01905
85.042,0.02152
85.098,0.01972
85.12,0.02044
85.14,0.02004
85.242,0.046
85.262,0.05121
85.28,0.04358
85.298,0.03904
85.332,0.26383
85.422,0.08032
85.46,0.05292
85.48,0.06181
85.52,0.03935
85.54,0.02197
85.58,0.02331
85.622,0.02785
85.638,0.00759
85.68,0.01069
85.74,0.01635
85.76,0.01977
85.78,0.02412
85.842,0.02269
85.86,0.02403
85.88,0.02623
85.98,0.04977
86.022,0.03585
86.04,0.03455
86.068,0.30498
86.11,-0.12367
86.162,0.08944
86.178,0.07655
86.2,0.06905
86.22,0.07111
86.238,0.05782
86.282,0.03158
86.34,0.05283
86.38,0.02466
86.398,0.00606
86.444,0.01011
86.462,0.02291
86.48,0.01671
86.5,0.01352
86.522,0.02174
86.542,0.01685
86.558,0.01959
86.58,0.0208
86.72,0.04847
86.76,0.05382
86.78,0.05494
86.81,0.36387
86.88,0.12812
86.916,0.10804
86.938,0.08324
86.958,0.0796
86.978,0.07507
87.038,0.02574
87.082,0.05552
87.162,0.00692
87.18,0.01649
87.22,0.02875
87.24,0.02448
87.282,0.00606
87.3,0.01042
87.32,0.0146
87.338,0.00863
87.362,0.00845
87.44,0.03324
87.46,0.03522
87.482,0.02763
87.544,0.28396
87.586,-0.1013
87.622,0.08499
87.642,0.07457
87.658,0.06815
87.678,0.06181
87.7,0.05454
87.72,0.04402
87.78,0.00526
87.8,0.015
87.818,0.02331
87.902,0.01015
87.938,0.01491
87.962,0.019
88.0,0.0221
88.022,0.02165
88.04,0.02498
88.082,0.0212
88.102,0.02048
88.2,0.04546
88.218,0.04834
88.238,0.04057
88.292,0.32214
88.362,0.08859
88.38,0.09232
88.402,0.07569
88.46,0.06105
88.562,0.05103
88.578,0.0451
88.618,0.01348
88.662,0.01756
88.7,0.03149
88.718,0.02893
88.758,0.02228
88.782,0.02053
88.802,0.02246
88.82,0.02296
88.862,0.01707
88.878,0.00997
88.98,0.0442
89.0,0.042
89.02,0.04596
89.04,0.04897
89.076,0.38256
89.162,0.12111
89.18,0.10117
89.218,0.08082
89.238,0.06442
89.258,0.05265
89.278,0.0429
89.302,0.03091
89.362,0.06604
89.378,0.04366
89.418,0.01388
89.478,0.03225
89.52,0.03783
89.558,0.01384
89.578,0.01217
89.598,0.0155
89.62,0.01532
89.66,0.00341
89.68,-0.00629
89.78,0.0553
89.8,0.05431
89.866,0.31787
89.908,-0.11689
89.94,0.10584
90.002,0.05782
90.016,0.04906
90.038,0.0385
90.162,0.027
90.18,0.01783
90.196,0.01586
90.22,0.01792
90.256,0.0226
90.28,0.02907
90.298,0.02835
90.342,0.01887
90.36,0.01312
90.38,0.01649
90.4,0.01604
90.418,0.01155
90.52,0.03935
90.538,0.03985
90.56,0.04137
90.58,0.03221
90.612,0.2862
90.7,0.08648
90.738,0.05732
90.76,0.05242
90.78,0.05278
90.842,0.015
90.898,0.03225
90.96,0.01716
90.98,0.01635
91.002,0.01819
91.02,0.02637
91.036,0.02641
91.06,0.02969
91.076,0.02453
91.1,0.0208
91.118,0.02233
91.14,0.02498
91.162,0.01599
91.302,0.0491
91.32,0.05108
91.338,0.04331
91.368,0.34326
91.408,-0.09681
91.442,0.10117
91.502,0.06702
91.522,0.05741
91.538,0.06316
91.558,0.046
91.582,0.02983
91.658,0.0535
91.7,0.00148
91.718,0.0
91.742,0.00413
91.762,0.01312
91.78,0.02722
91.798,0.02821
91.858,0.01469
91.884,0.01258
91.9,0.01765
91.92,0.01096
91.94,0.00966
91.958,-0.02246
92.056,0.04632
92.078,0.04784
92.116,0.36401
92.2,0.1168
92.258,0.06923
92.338,0.01923
92.376,0.04241
92.4,0.05777
92.478,0.00916
92.502,0.02192
92.52,0.02331
92.54,0.03252
92.58,0.01473
92.62,0.01779
92.638,0.01545
92.662,0.0062
92.76,0.04632
92.78,0.03738
92.798,0.03149
92.846,0.26513
92.938,0.07062
92.96,0.0593
92.982,0.0575
92.998,0.05305
93.018,0.04632
93.062,0.0124
93.078,0.01033
93.12,0.0376
93.14,0.03845
93.178,0.0102
93.2,0.0097
93.224,0.00791
93.24,0.01721
93.26,0.0155
93.278,0.02516
93.298,0.02619
93.34,0.02471
93.362,0.02147
93.478,0.04789
93.496,0.03455
93.518,0.03711
93.56,0.34034
93.6,-0.10463
93.642,0.09061
93.658,0.08396
93.68,0.06644
93.7,0.06473
93.718,0.06514
93.738,0.05373
93.78,0.02794
93.8,0.02871
93.838,0.06343
93.96,0.02228
93.976,0.02592
93.998,0.02471
94.018,0.02808
94.038,0.01815
94.06,0.01756
94.098,0.01685
94.18,0.01837
94.198,0.04452
94.218,0.04416
94.238,0.04627
94.288,0.34339
94.378,0.12273
94.438,0.07246
94.458,0.07924
94.476,0.05984
94.518,0.03922
94.56,0.07893
94.578,0.07008
94.64,0.00863
94.658,0.01676
94.698,0.02821
94.718,0.02929
94.736,0.01613
94.76,0.00943
94.776,0.0142
94.8,0.0124
94.82,0.01132
94.86,-0.01653
94.94,0.03378
94.958,0.03863
94.976,0.03145
95.022,0.30278
95.064,-0.1097
95.102,0.08037
95.116,0.08122
95.138,0.06419
95.158,0.05517
95.196,0.03756
95.218,0.02323
95.236,0.0111
95.28,0.02264
95.3,0.03684
95.36,0.00597
95.378,0.01348
95.398,0.01604
95.416,0.02246
95.436,0.02641
95.456,0.0257
95.502,0.02507
95.518,0.03234
95.542,0.02305
95.558,0.02767
95.66,0.06127
95.678,0.0602
95.698,0.05984
95.742,0.35619
95.784,-0.08746
95.82,0.11666
95.838,0.11285
95.858,0.11195
95.88,0.11015
95.898,0.10445
95.938,0.08392
95.958,0.07821
95.978,0.06559
96.018,0.10238
96.116,0.0588
96.138,0.07277
96.196,0.07498
96.22,0.07264
96.238,0.0717
96.258,0.07062
96.28,0.0615
96.32,0.0274
96.42,0.07875
96.48,0.40035
96.52,-0.07444
96.556,0.12381
96.638,0.08702
96.74,0.05633
96.754,0.05642
96.86,-0.00624
96.9,0.00508
96.918,0.00256
96.938,-0.00184
96.98,-0.00755
96.998,-0.01119
97.036,-0.01945
97.056,-0.03073
97.078,-0.06379
97.156,0.00562
97.178,0.00719
97.198,0.00737
97.238,0.32376
97.28,-0.13836
97.318,0.07722
97.378,0.03014
97.4,0.02677
97.48,-0.00863
97.498,0.00593
97.518,0.0115
97.58,-0.02543
97.598,-0.01325
97.618,-0.00867
97.64,0.00234
97.658,0.00571
97.678,0.00288
97.696,-0.0027
97.718,0.00714
97.74,0.0106
97.76,0.00701
97.778,0.00449
97.798,-0.00341
97.836,-0.03881
97.86,-0.06446
97.918,0.03998
97.94,0.04344
97.96,0.03863
97.994,0.31248
98.036,-0.1004
98.078,0.08643
98.116,0.06357
98.138,0.05624
98.158,0.05207
98.196,0.02048
98.218,0.01042
98.278,0.04057
98.34,-0.00288
98.378,0.00377
98.416,0.01541
98.458,0.01779
98.48,0.02448
98.498,0.02282
98.52,0.01473
98.54,0.01604
98.558,0.01756
98.596,-0.03383
98.66,0.04582
98.696,0.04928
98.752,0.35386
98.838,0.09793
98.88,0.06249
98.936,0.04281
98.956,0.03482
99.038,0.05391
99.118,0.00031
99.14,0.00521
99.156,0.01896
99.178,0.02323
99.2,0.00319
99.216,0.00449
99.24,-0.00103
99.278,0.00562
99.296,0.00436
99.316,-0.00503
99.336,-0.00467
99.358,-0.04542
99.438,0.04802
99.48,0.04025
99.52,0.38845
99.56,-0.10701
99.594,0.10871
99.676,0.06743
99.698,0.05323
99.738,0.02677
99.798,0.06932
99.876,-0.00593
99.898,-0.00157
99.916,0.0
99.938,0.01047
99.958,0.00638
99.974,0.0027
99.998,0.00265
100.016,0.01455
100.04,0.00526
100.058,0.00674
100.078,-0.00359
100.118,-0.02857
100.196,0.04816
100.216,0.04331
100.238,0.04384
100.274,0.31145
100.316,-0.10094
100.358,0.08791
100.394,0.0584
100.418,0.06271
100.438,0.04537
100.458,0.04205
100.476,0.02821
100.516,0.02808
100.536,0.03765
100.558,0.04474
100.598,0.0088
100.618,0.00813
100.636,0.00449
100.656,0.00925
100.678,0.0168
100.698,0.01981
100.718,0.02907
100.756,0.02412
100.776,0.02111
100.796,0.02448
100.818,0.02412
100.858,-0.02781
100.938,0.04569
100.954,0.04124
100.978,0.0345
101.012,0.32888
101.096,0.09973
101.116,0.07817
101.136,0.06388
101.158,0.06092
101.256,0.02763
101.294,0.06172
101.398,0.00705
101.418,0.01855
101.456,0.02556
101.476,0.01604
101.498,0.01797
101.514,0.01707
101.554,0.01361
101.594,-0.03306
101.678,0.0451
101.696,0.03935
101.716,0.04371
101.748,0.36976
101.818,0.11064
101.836,0.11693
101.856,0.09411
101.892,0.06402
101.916,0.06289
101.976,0.02682
102.018,0.04605
102.096,-0.004
102.118,-0.00144
102.136,0.0106
102.158,0.01923
102.174,0.01312
102.214,0.01747
102.236,0.01312
102.256,0.02013
102.276,0.01181
102.298,0.01698
102.318,0.01294
102.414,0.04223
102.438,0.04115
102.454,0.04205
102.498,0.31585
102.54,-0.08773
102.578,0.1044
102.594,0.09959
102.618,0.08369
102.636,0.07853
102.654,0.07552
102.696,0.04115
102.716,0.03841
102.754,0.04991
102.776,0.06595
102.816,0.02893
102.878,0.02691
102.896,0.03234
102.916,0.03082
102.934,0.03522
102.952,0.02965
102.972,0.03091
102.998,0.04245
103.036,0.03482
103.056,0.03396
103.136,0.03306
103.158,0.04187
103.176,0.04627
103.214,0.03845
103.24,0.33908
103.282,-0.12408
103.316,0.09299
103.354,0.06788
103.372,0.05755
103.394,0.05957
103.436,0.03868
103.476,0.02287
103.498,0.03827
103.518,0.05341
103.594,-0.00108
103.612,-0.00121
103.636,0.00705
103.658,0.02152
103.676,0.01586
103.696,0.0146
103.718,0.00993
103.736,0.0195
103.774,0.01289
103.798,-0.00593
103.816,-0.00773
103.834,-0.01527
103.856,-0.04726
103.976,0.04474
104.014,0.3787
104.054,-0.10364
104.094,0.10696
104.138,0.07565
104.194,0.05265
104.216,0.02835
104.232,0.01541
104.256,0.02331
104.294,0.05346
104.374,0.00225
104.394,0.00463
104.416,0.00175
104.456,0.00359
104.494,0.01433
104.514,0.01253
104.536,0.01563
104.556,0.0106
104.572,0.01253
104.614,-0.02183
104.676,0.03396
104.71,0.03329
104.734,0.03733
104.774,0.30152
104.816,-0.09986
104.854,0.08261
104.994,0.01536
105.016,0.01599
105.036,0.02682
105.056,0.03158
105.096,0.01455
105.114,0.01181
105.136,0.0088
105.154,0.01213
105.194,0.01873
105.216,0.02044
105.256,0.02722
105.274,0.0221
105.296,0.02588
105.418,0.01622
105.438,0.05049
105.456,0.04425
105.476,0.04416
105.496,0.03877
105.524,0.33153
105.564,-0.11388
105.616,0.0933
105.634,0.07075
105.656,0.05323
105.676,0.05768
105.696,0.05207
105.714,0.04519
105.736,0.03005
105.758,0.01523
105.778,0.03612
105.794,0.04977
105.814,0.05925
105.876,0.00557
105.914,0.0181
105.938,0.03104
106.016,0.03109
106.034,0.04007
106.074,0.02907
106.116,0.0173
106.214,0.06478
106.252,0.06451
106.272,0.06469
106.302,0.38723
106.342,-0.09771
106.374,0.13427
106.456,0.07915
106.472,0.07444
106.494,0.05975
106.516,0.03684
106.536,0.03711
106.576,0.07502
106.594,0.07129
106.672,0.02439
106.714,0.03216
106.732,0.02983
106.794,0.02251
106.818,0.02799
106.852,0.02188
106.876,0.019
106.91,-0.02439
106.994,0.04546
107.014,0.05157
107.034,0.04187
107.07,0.27412
107.11,-0.09245
107.156,0.07349
107.196,0.05314
107.214,0.04447
107.276,0.00606
107.314,0.01074
107.334,0.01078
107.354,0.01756
107.394,-0.00544
107.414,0.00094
107.492,0.02165
107.514,0.02907
107.534,0.02709
107.592,0.02331
107.654,0.00359
107.752,0.04528
107.774,0.04618
107.792,0.04335
107.814,0.03163
107.844,0.31118
107.914,0.0823
107.932,0.08082
107.972,0.0482
107.994,0.04079
108.012,0.03306
108.032,0.02907
108.132,0.04488
108.154,0.02102
108.232,0.01487
108.252,0.01806
108.292,0.0217
108.312,0.01491
108.334,0.01694
108.354,0.00966
108.394,0.01402
108.414,0.0124
108.474,-0.03895
108.536,0.03207
108.552,0.046
108.572,0.05638
108.596,0.05103
108.634,0.36608
108.674,-0.10395
108.712,0.09798
108.732,0.08859
108.754,0.07444
108.794,0.05157
108.874,0.01815
108.918,0.05234
108.994,0.00207
109.014,0.00211
109.034,0.00912
109.052,0.01244
109.07,0.00629
109.116,0.01289
109.132,0.01033
109.154,0.00665
109.172,0.0031
109.192,0.01006
109.236,-0.031
109.312,0.04528
109.336,0.04474
109.356,0.04627
109.394,0.2849
109.434,-0.08715
109.478,0.07188
109.492,0.0726
109.514,0.06199
109.532,0.05912
109.552,0.05207
109.61,0.00755
109.656,0.01869
109.674,0.02655
109.734,0.01703
109.774,0.02561
109.794,0.02623
109.814,0.0288
109.834,0.0345
109.852,0.0319
109.874,0.02983
109.894,0.04128
109.914,0.03414
109.934,0.02965
109.954,0.02022
110.056,0.04667
110.076,0.03971
110.092,0.04241
110.136,0.34352
110.176,-0.09622
110.214,0.10081
110.234,0.09232
110.294,0.05782
110.354,0.03329
110.376,0.02466
110.414,0.05265
110.474,0.00647
110.494,0.01366
110.514,0.01438
110.552,0.03059
110.574,0.02907
110.594,0.02498
110.614,0.01464
110.632,0.01905
110.652,0.02606
110.676,0.01797
110.714,0.01671
110.752,-0.03311
110.834,0.05247
110.854,0.05301
110.912,0.38688
110.952,-0.09321
110.994,0.12574
111.052,0.06891
111.074,0.06249
111.154,0.02466
111.194,0.05251
111.252,0.00234
111.272,0.00593
111.294,0.01815
111.314,0.02673
111.356,0.02372
111.374,0.01864
111.394,0.01321
111.412,0.01577
111.436,0.01213
111.456,0.00894
111.474,0.00755
111.494,-0.02291
111.57,0.03302
111.614,0.0372
111.654,0.28454
111.696,-0.08162
111.732,0.08481
111.754,0.07569
111.772,0.06882
111.794,0.05588
111.834,0.04807
111.934,0.03005
111.974,0.01015
111.994,0.01469
112.034,0.02331
112.054,0.0212
112.092,0.02538
112.118,0.02084
112.132,0.03181
112.156,0.03122
112.172,0.02907
112.19,0.02727
112.214,0.01977
112.232,-0.01541
112.314,0.04187
112.334,0.04632
112.394,0.34532
112.434,-0.08356
112.472,0.1026
112.492,0.08481
112.552,0.05916
112.61,0.02484
112.632,0.02875
112.674,0.06478
112.734,0.00162
112.752,-0.00472
112.794,0.02691
112.812,0.02588
112.874,0.01959
112.912,0.02691
112.974,0.01613
112.992,0.00719
113.012,-0.02498
113.074,0.03216
113.09,0.03989
113.112,0.04632
113.134,0.04263
113.172,0.36334
113.212,-0.08679
113.252,0.11029
113.272,0.0929
113.312,0.06451
113.334,0.05782
113.354,0.05063
113.454,0.05377
113.514,-0.01276
113.534,0.00166
113.554,0.00831
113.574,0.0181
113.592,0.02219
113.612,0.01972
113.634,0.01312
113.654,0.00638
113.672,0.01204
113.694,0.0097
113.716,0.00975
113.734,0.00845
113.752,0.00562
113.794,0.00027
113.834,-0.04079
113.894,0.04358
113.936,0.03922
113.954,0.04533
113.992,0.29465
114.036,-0.10454
114.074,0.08073
114.094,0.07399
114.114,0.06069
114.154,0.04757
114.17,0.03252
114.214,0.00629
114.274,0.03769
114.312,0.02462
114.334,0.02053
114.374,0.02529
114.434,0.03437
114.474,0.03338
114.494,0.02965
114.514,0.02812
114.532,0.02305
114.556,0.01469
114.572,0.02152
114.614,-0.02044
114.716,0.06649
114.732,0.06069
114.754,0.05517
114.778,0.34483
114.82,-0.10117
114.856,0.08468
114.874,0.08657
114.914,0.05782
114.934,0.04946
114.952,0.04519
115.014,0.02053
115.058,0.04694
115.07,0.04456
115.132,0.01393
115.174,0.02462
115.194,0.0226
115.216,0.03113
115.234,0.02704
115.254,0.0248
115.276,0.01833
115.292,0.02731
115.314,0.01986
115.334,0.02147
115.396,-0.03324
115.458,0.04057
115.472,0.05993
115.494,0.05966
115.514,0.05108
115.55,0.36423
115.592,-0.09286
115.634,0.0991
115.67,0.07336
115.694,0.06285
115.732,0.04205
115.774,0.01864
115.832,0.07192
115.914,0.01491
115.934,0.02228
115.954,0.02484
115.972,0.03037
115.994,0.02296
116.014,0.0115
116.054,0.00485
116.074,0.00544
116.112,-0.04079
116.192,0.04232
116.212,0.04569
116.232,0.03944
116.266,0.32686
116.304,-0.09052
116.354,0.10153
116.394,0.07996
116.41,0.06289
116.432,0.05782
116.454,0.04618
116.472,0.03832
116.494,0.02188
116.534,0.05557
116.552,0.05606
116.614,0.00606
116.632,0.00741
116.674,0.02228
116.73,0.01617
116.754,0.01541
116.774,0.0279
116.874,0.03477
116.896,0.03863
116.958,0.35961
116.998,-0.10786
117.052,0.10512
117.092,0.06761
117.112,0.06676
117.132,0.06285
117.152,0.06204
117.172,0.05337
117.194,0.0557
117.214,0.07008
117.234,0.07781
117.294,-0.00867
117.31,-0.01779
117.332,-0.01181
117.356,-0.01393
117.376,-0.00575
117.394,0.00539
117.432,0.00651
117.452,0.01172
117.472,0.01505
117.496,-0.00436
117.572,0.05337
117.592,0.05741
117.614,0.04331
117.652,0.29618
117.694,-0.0978
117.736,0.08419
117.772,0.06415
117.792,0.06065
117.812,0.06074
117.852,0.04214
117.894,0.03899
117.932,0.0478
117.972,0.01779
117.994,0.00126
118.032,0.00216
118.056,0.00588
118.076,0.01065
118.092,0.01842
118.134,0.03216
118.216,0.05858
118.232,0.07242
118.252,0.0557
118.316,0.26325
118.362,-0.11729
118.412,0.06774
118.454,0.04187
118.472,0.04371
118.494,0.04632
118.53,0.02269
118.554,0.01694
118.592,0.05642
118.652,0.00018
118.674,-0.01119
118.712,-0.00355
118.732,-0.0058
118.774,0.01105
118.792,0.00952
118.814,0.01671
118.832,-0.0027
118.896,0.04632
118.914,0.05737
118.93,0.0575
118.956,0.05108
118.992,0.33993
119.032,-0.1128
119.072,0.09865
119.132,0.05409
119.152,0.0602
119.192,0.0354
119.254,0.06707
119.272,0.08104
119.352,-0.01083
119.374,-0.00988
119.392,0.00022
119.412,0.00463
119.432,0.0088
119.494,0.02084
119.528,-0.02165
119.554,-0.069
119.594,0.0531
119.612,0.05049
119.634,0.04632
119.686,0.34123
119.772,0.09685
119.796,0.08715
119.834,0.08378
119.852,0.07619
119.874,0.07134
119.892,0.04982
119.952,0.08607
120.03,-0.01716
120.054,-0.01909
120.074,-0.01078
120.114,0.00719
120.152,0.00894
120.192,0.00952
120.212,0.01649
120.332,0.05575
120.352,0.05076
120.374,0.03877
120.4,0.30247
120.492,0.08499
120.532,0.06199
120.554,0.05948
120.572,0.0487
120.592,0.038
120.672,0.04402
120.73,-0.00247
120.754,-0.01132
120.774,-0.01119
120.794,0.0018
120.814,0.00669
120.836,0.01725
120.854,0.01455
120.894,0.02808
120.916,0.02754
121.012,0.06204
121.054,0.05809
121.074,0.04928
121.098,0.31621
121.14,-0.12089
121.174,0.07888
121.192,0.08401
121.208,0.06056
121.232,0.05624
121.254,0.06577
121.272,0.04919
121.294,0.04277
121.314,0.03127
121.332,0.0336
121.374,0.06905
121.452,-0.01882
121.472,-0.01635
121.514,0.00359
121.572,0.01491
121.594,0.01959
121.61,0.01887
121.636,0.01824
121.654,0.02246
121.67,0.01181
121.77,0.04991
121.794,0.05862
121.81,0.05485
121.856,0.38436
121.896,-0.1026
121.936,0.11307
121.99,0.06869
122.014,0.06186
122.032,0.05409
122.072,0.02471
122.114,0.04906
122.134,0.07614
122.292,0.02394
122.312,0.01384
122.336,0.01298
122.35,0.01613
122.392,0.01792
122.414,0.019
122.534,0.04375
122.554,0.04461
122.57,0.03657
122.602,0.32039
122.69,0.11136
122.756,0.06932
122.814,0.02264
122.834,0.01694
122.854,0.02821
122.892,0.04614
122.932,-0.00773
122.954,-0.00409
122.972,-0.00031
122.992,-0.00126
123.012,0.01491
123.03,0.0013
123.052,0.0088
123.072,0.02089
123.092,0.0239
123.132,0.03338
123.154,0.02448
123.196,-0.0084
123.274,0.04632
123.292,0.04546
123.31,0.04223
123.354,0.32313
123.396,-0.11262
123.452,0.08769
123.492,0.06307
123.512,0.05876
123.532,0.04807
123.552,0.03037
123.572,0.02296
123.592,0.02197
123.614,0.04057
123.636,0.04632
123.672,0.00499
123.692,-0.01262
123.754,-0.0022
123.774,0.00283
123.794,0.01581
123.834,0.02426
123.852,0.027
123.874,0.02637
123.894,0.0327
123.914,0.02426
123.932,0.019
123.952,-0.01977
124.034,0.05373
124.056,0.0518
124.074,0.05094
124.112,0.36639
124.152,-0.10507
124.194,0.111
124.254,0.06487
124.272,0.06289
124.292,0.06083
124.334,0.03558
124.392,0.06006
124.452,-0.01739
124.494,-0.00265
124.534,0.01491
124.554,0.01851
124.574,0.02251
124.592,0.03073
124.612,0.03531
124.634,0.03365
124.67,0.02907
124.794,0.0416
124.816,0.038
124.83,0.03482
124.876,0.32771
124.916,-0.11478
124.952,0.09914
124.972,0.09941
124.992,0.0814
125.008,0.07475
125.032,0.08005
125.074,0.04173
125.094,0.02763
125.152,0.06244
125.232,-0.00126
125.252,-0.0009
125.274,0.00341
125.292,0.01065
125.31,0.00961
125.332,0.01168
125.354,0.01833
125.372,0.01545
125.392,0.01977
125.41,0.01285
125.432,-0.01977
125.512,0.0482
125.552,0.04551
125.592,0.27421
125.632,-0.10862
125.672,0.06419
125.69,0.05732
125.712,0.05606
125.732,0.05013
125.752,0.0553
125.774,0.04461
125.792,0.03401
125.832,0.02538
125.87,0.04699
125.91,0.01047
125.93,-0.008
125.952,-0.00872
125.972,-0.01262
125.992,-0.00413
126.012,0.01734
126.032,0.01923
126.052,0.02677
126.092,0.0372
126.114,0.03306
126.134,0.03306
126.15,0.03149
126.172,-0.00934
126.252,0.04802
126.272,0.05013
126.292,0.04438
126.332,0.3508
126.372,-0.09888
126.41,0.10588
126.474,0.06428
126.512,0.0619
126.55,0.03774
126.612,0.07601
126.672,-0.00809
126.694,-0.01235
126.714,0.00521
126.754,0.01972
126.774,0.01797
126.814,0.01438
126.832,0.01963
126.852,0.02331
126.97,0.04272
126.992,0.04492
127.01,0.04672
127.03,0.03697
127.062,0.36527
127.148,0.1234
127.212,0.08513
127.232,0.07462
127.254,0.0553
127.272,0.03805
127.332,0.06644
127.352,0.06168
127.41,-0.0102
127.432,-0.00332
127.448,0.00121
127.474,0.01276
127.492,0.02143
127.51,0.01402
127.532,0.02426
127.552,0.02156
127.574,0.02013
127.612,0.01833
127.712,0.05418
127.732,0.04627
127.752,0.04852
127.796,0.27942
127.838,-0.12165
127.872,0.07758
127.914,0.06559
127.932,0.06343
127.954,0.0584
127.99,0.02659
128.012,0.02282
128.032,0.02314
128.07,0.04349
128.09,0.03203
128.11,0.01222
128.152,-0.01114
128.17,-0.00719
128.212,0.00211
128.228,0.00638
128.252,0.02534
128.27,0.0239
128.292,0.02475
128.31,0.02331
128.334,-0.00683
128.414,0.05898
128.43,0.05481
128.45,0.04128
128.49,0.31055
128.532,-0.10894
128.572,0.08082
128.59,0.07246
128.632,0.04798
128.652,0.05018
128.692,0.03594
128.712,0.02902
128.752,0.04811
128.772,0.05876
128.83,0.0066
128.85,-0.00413
128.872,-0.00229
128.912,0.01276
128.932,0.01833
128.97,0.03122
128.992,0.04115
129.01,0.0257
129.03,0.03324
129.052,0.0341
129.152,0.04973
129.172,0.0557
129.236,0.36104
129.274,-0.11783
129.312,0.10907
129.33,0.10494
129.392,0.07435
129.412,0.06343
129.432,0.04964
129.472,0.04057
129.512,0.08158
129.592,-0.00481
129.612,-0.00305
129.634,0.01083
129.652,0.02323
129.67,0.02403
129.692,0.02606
129.71,0.0208
129.734,0.02228
129.75,0.01923
129.77,0.02331
129.81,-0.02008
129.874,0.04766
129.89,0.04573
129.914,0.04753
129.966,0.33189
130.052,0.10867
130.11,0.07758
130.212,0.03639
130.252,0.05445
130.268,0.04043
130.33,0.00952
130.354,0.00988
130.372,0.01464
130.388,0.01563
130.412,0.0212
130.432,0.01253
130.472,0.02426
130.494,0.0243
130.53,-0.01959
130.612,0.0442
130.634,0.04272
130.69,0.30907
130.73,-0.11891
130.772,0.07637
130.83,0.05575
130.852,0.04789
130.87,0.04632
130.892,0.0265
130.912,0.01146
130.932,0.01316
130.952,0.03598
130.972,0.04402
131.032,-0.00903
131.048,-0.00341
131.074,0.00323
131.09,0.0031
131.112,0.01114
131.132,0.01608
131.17,0.02826
131.212,0.03212
131.23,0.02318
131.252,-0.01694
131.332,0.0584
131.35,0.05013
131.408,0.35615
131.492,0.10925
131.51,0.09649
131.528,0.07758
131.57,0.06348
131.586,0.0549
131.61,0.04968
131.634,0.02907
131.652,0.04474
131.67,0.05732
131.692,0.07255
131.752,-0.00907
131.77,0.00642
131.832,0.02048
131.85,0.01747
131.89,0.0159
131.91,0.02722
131.932,0.02803
131.968,0.01447
131.994,-0.01959
132.072,0.06056
132.112,0.05265
132.15,0.36688
132.192,-0.09699
132.232,0.13252
132.29,0.08396
132.33,0.0686
132.392,0.04232
132.41,0.05943
132.432,0.07403
132.452,0.05207
132.47,0.02453
132.49,0.00939
132.51,0.01541
132.53,0.01995
132.57,0.02233
132.588,0.01159
132.61,0.01348
132.63,0.01514
132.652,0.03199
132.672,0.01864
132.692,0.02057
132.73,-0.0221
132.81,0.04892
132.83,0.03234
132.852,0.03756
132.892,0.28063
132.932,-0.10126
132.972,0.07206
132.99,0.07192
133.03,0.05278
133.052,0.05422
133.07,0.04187
133.112,0.01743
133.152,0.01725
133.172,0.01815
133.192,0.00759
133.21,0.00566
133.228,-0.00193
133.25,-0.00283
133.312,0.02615
133.33,0.02143
133.352,0.01671
133.37,0.0124
133.394,0.01833
133.432,0.02102
133.452,0.01779
133.55,0.04942
133.572,0.04344
133.61,0.03967
133.636,0.30804
133.678,-0.10332
133.732,0.09524
133.772,0.06792
133.792,0.06738
133.812,0.07349
133.85,0.04236
133.876,0.02534
133.892,0.04456
133.912,0.05768
133.932,0.05121
133.95,0.02803
133.994,0.01083
134.016,0.01963
134.052,0.02947
134.072,0.02758
134.09,0.02871
134.112,0.03005
134.134,0.02291
134.17,0.02013
134.19,0.01312
134.212,0.0093
134.232,0.00822
134.252,0.00701
134.288,-0.04173
134.352,0.04214
134.374,0.04995
134.394,0.05063
134.41,0.05242
134.448,0.35507
134.488,-0.09928
134.53,0.10274
134.594,0.06994
134.61,0.06729
134.63,0.06222
134.67,0.03482
134.692,0.03706
134.712,0.06092
134.73,0.07673
134.75,0.04802
134.792,0.019
134.812,0.02129
134.836,0.02758
134.872,0.04438
134.892,0.03594
134.91,0.02907
134.93,0.02147
134.952,0.01635
134.972,0.0208
134.99,0.02129
135.01,0.02237
135.032,0.00836
135.052,0.00184
135.136,0.02511
135.154,0.04591
135.17,0.04393
135.194,0.04726
135.21,0.05269
135.242,0.27057
135.314,0.06994
135.328,0.0787
135.392,0.0482
135.432,0.02228
135.472,0.00593
135.492,0.00606
135.514,0.02089
135.532,0.0336
135.552,0.02785
135.572,0.02444
135.592,0.03935
135.612,0.04124
135.632,0.02466
135.652,0.02722
135.672,0.02224
135.692,0.01932
135.712,0.01756
135.752,0.01707
135.77,0.01563
135.794,0.02048
135.81,0.0124
135.834,0.00535
135.874,-0.03809
135.932,0.02547
135.954,0.0314
135.972,0.04196
135.992,0.03917
136.034,0.30817
136.074,-0.09389
136.114,0.08212
136.134,0.07605
136.152,0.0575
136.17,0.05409
136.19,0.05049
136.21,0.03971
136.232,0.02543
136.254,0.0173
136.274,0.01181
136.294,0.02722
136.312,0.04021
136.332,0.04187
136.348,0.02534
136.372,0.01716
136.392,0.0168
136.414,0.02682
136.43,0.02758
136.454,0.0279
136.472,0.02866
136.532,0.03145
136.57,0.01617
136.59,0.01002
136.614,0.01029
136.634,0.00952
136.652,0.0031
136.754,0.0557
136.772,0.05844
136.792,0.05665
136.836,0.37847
136.878,-0.09649
136.914,0.12237
136.93,0.10746
136.974,0.0664
136.992,0.05777
137.032,0.04349
137.116,0.06163
137.134,0.06846
137.174,0.01752
137.194,0.02331
137.21,0.02403
137.234,0.03216
137.252,0.03082
137.276,0.02462
137.312,0.03185
137.332,0.02305
137.352,0.02246
137.374,0.01981
137.392,0.01756
137.414,0.0088
137.496,0.01024
137.514,0.03832
137.556,0.03827
137.57,0.04726
137.598,0.27264
137.642,-0.11595
137.692,0.08356
137.71,0.07089
137.772,0.04438
137.814,0.00557
137.834,0.00031
137.892,0.03284
137.934,0.00889
137.956,0.01469
137.974,0.01797
138.01,0.02462
138.034,0.0372
138.054,0.03437
138.072,0.03648
138.09,0.0305
138.11,0.02282
138.132,0.01927
138.154,0.01936
138.27,0.04223
138.312,0.04703
138.362,0.33643
138.454,0.09146
138.512,0.05876
138.528,0.05481
138.554,0.04393
138.57,0.03477
138.594,0.02857
138.632,0.06168
138.652,0.06523
138.692,0.00153
138.714,-0.00283
138.754,0.01658
138.774,0.01851
138.81,0.01905
138.834,0.01114
138.854,0.01977
138.87,0.01581
138.912,0.01568
138.936,0.00993
138.954,0.00108
138.974,-0.02089
139.054,0.05768
139.074,0.05912
139.134,0.37039
139.174,-0.09888
139.214,0.1225
139.272,0.06815
139.294,0.06541
139.334,0.03338
139.374,0.02749
139.394,0.03922
139.412,0.05692
139.474,-0.00054
139.514,0.01132
139.534,0.02331
139.556,0.02327
139.574,0.02264
139.612,0.02035
139.632,0.01586
139.654,0.01181
139.67,0.0088
139.712,-0.02273
139.772,0.04272
139.794,0.04322
139.812,0.04331
139.832,0.03652
139.868,0.27241
139.91,-0.10036
139.952,0.07637
139.97,0.073
139.992,0.05301
140.014,0.04847
140.052,0.02974
140.072,0.01429
140.092,0.00588
140.116,0.01563
140.154,0.04092
140.194,0.00094
140.21,-0.01222
140.232,-0.00912
140.254,0.00027
140.274,-0.00126
140.292,0.00827
140.316,0.01914
140.332,0.00912
140.372,0.01864
140.392,0.03261
140.412,0.02331
140.432,0.01047
140.516,0.04744
140.534,0.04834
140.552,0.05031
140.574,0.04196
140.606,0.3406
140.692,0.10027
140.712,0.08634
140.736,0.06882
140.752,0.06307
140.772,0.05732
140.796,0.0487
140.834,0.03243
140.894,0.07673
140.954,-0.01096
140.974,-0.00656
140.994,0.01411
141.014,0.01923
141.032,0.01491
141.074,0.01586
141.094,0.01842
141.114,0.01438
141.134,0.02066
141.154,0.00925
141.172,0.01132
141.258,0.01833
141.274,0.04061
141.294,0.04048
141.312,0.04344
141.36,0.36509
141.4,-0.10777
141.436,0.12498
141.492,0.08935
141.514,0.08841
141.534,0.07601
141.576,0.04115
141.616,0.05921
141.634,0.07745
141.654,0.07569
141.716,0.00234
141.738,0.00813
141.752,0.01756
141.772,0.01312
141.794,0.01734
141.81,0.02022
141.832,0.01024
141.852,0.02183
141.876,0.02004
141.896,0.0248
141.914,0.03086
141.934,0.0186
141.996,-0.05503
142.016,0.02013
142.036,0.03922
142.056,0.04362
142.076,0.04609
142.094,0.04313
142.126,0.28122
142.216,0.08486
142.252,0.06267
142.274,0.05557
142.294,0.0442
142.314,0.0226
142.334,0.00391
142.354,0.01056
142.376,0.02749
142.416,0.04573
142.456,0.00521
142.476,0.00566
142.556,0.01065
142.574,0.02066
142.594,0.0261
142.618,0.01851
142.634,0.01977
142.654,0.01649
142.672,-0.00292
142.694,-0.00391
142.716,-0.02659
142.792,0.03522
142.816,0.04474
142.834,0.03482
142.874,0.33238
142.916,-0.1079
142.956,0.08976
142.976,0.08324
143.016,0.0606
143.036,0.06523
143.056,0.05162
143.076,0.0487
143.096,0.02552
143.116,0.0243
143.154,0.06828
143.174,0.06015
143.196,0.02013
143.258,0.01258
143.294,0.0195
143.316,0.02156
143.336,0.02462
143.356,0.01923
143.374,0.02893
143.394,0.02601
143.416,0.01756
143.434,0.01635
143.534,0.04007
143.556,0.03765
143.578,0.03994
143.624,0.3504
143.664,-0.10966
143.698,0.12637
143.716,0.11923
143.758,0.08504
143.778,0.08212
143.792,0.07906
143.834,0.04726
143.856,0.04389
143.914,0.08836
143.978,0.00687
143.994,0.00993
144.016,0.01698
144.036,0.03145
144.058,0.02466
144.074,0.01801
144.098,0.02057
144.114,0.03037
144.136,0.02417
144.156,0.02646
144.194,0.02331
144.214,0.0106
144.314,0.04762
144.334,0.04555
144.358,0.0473
144.376,0.04447
144.404,0.28194
144.48,0.08216
144.498,0.08477
144.516,0.0726
144.534,0.06258
144.554,0.05624
144.578,0.05072
144.618,0.0137
144.636,0.01649
144.696,0.04739
144.736,0.00566
144.776,-0.00252
144.798,-0.00665
144.836,0.01756
144.854,0.00943
144.914,0.00755
144.936,0.01132
144.956,0.01298
144.996,-0.03612
145.018,-0.07233
145.056,0.03401
145.076,0.03562
145.096,0.03562
145.118,0.0385
145.152,0.33656
145.192,-0.10543
145.238,0.10274
145.258,0.0836
145.28,0.06702
145.298,0.06181
145.318,0.06065
145.336,0.0584
145.356,0.04919
145.418,0.05552
145.438,0.06649
145.496,0.00238
145.518,0.00854
145.536,0.01141
145.556,0.02282
145.578,0.02215
145.598,0.02426
145.616,0.02749
145.636,0.0168
145.658,0.0261
145.676,0.02039
145.698,0.02682
145.718,0.03216
145.734,0.02048
145.758,-0.02385
145.818,0.03576
145.858,0.05719
145.92,0.35866
145.96,-0.08666
146.0,0.12084
146.016,0.11532
146.038,0.09506
146.06,0.08958
146.078,0.08288
146.096,0.06163
146.178,0.05171
146.198,0.06541
146.216,0.06222
146.236,0.02408
146.276,0.01833
146.3,0.01613
146.318,0.03005
146.356,0.02983
146.376,0.02048
146.4,0.01905
146.418,0.02736
146.438,0.02942
146.46,0.01864
146.6,0.03131
146.616,0.02857
146.638,0.03288
146.662,0.27879
146.706,-0.11662
146.74,0.07035
146.756,0.07507
146.796,0.05768
146.818,0.05319
146.86,0.01604
146.88,0.00063
146.898,-0.00018
146.938,0.02907
146.96,0.03473
146.978,0.00966
147.0,-0.01051
147.038,-0.00198
147.08,-0.00103
147.098,0.01891
147.12,0.01927
147.16,0.02412
147.178,0.02547
147.196,0.01433
147.218,0.00952
147.238,0.01078
147.26,-0.00103
147.34,0.02066
147.358,0.0336
147.38,0.04115
147.4,0.04236
147.446,0.32565
147.488,-0.11172
147.518,0.08657
147.54,0.08679
147.556,0.07677
147.58,0.06824
147.6,0.06487
147.622,0.05207
147.636,0.04057
147.654,0.01712
147.684,0.02731
147.716,0.05732
147.74,0.07107
147.78,0.00925
147.8,0.00256
147.836,0.01972
147.858,0.02862
147.882,0.02871
147.896,0.02039
147.92,0.01181
147.94,0.02197
147.96,0.02866
147.978,0.02552
148.02,0.02013
148.036,0.02031
148.122,0.03778
148.142,0.05494
148.158,0.06285
148.198,0.0624
148.224,0.36756
148.266,-0.09937
148.298,0.12637
148.34,0.0929
148.354,0.07206
148.398,0.07188
148.418,0.0451
148.442,0.02682
148.48,0.04591
148.502,0.06918
148.52,0.06357
148.54,0.03953
148.62,0.02749
148.636,0.03037
148.676,0.01833
148.7,0.0142
148.72,0.01613
148.742,0.019
148.76,0.0226
148.784,0.00714
148.8,0.00593
148.82,0.00328
148.842,-0.02749
148.918,0.03073
148.942,0.04546
148.962,0.03904
149.002,0.29883
149.042,-0.11159
149.08,0.05948
149.1,0.0606
149.14,0.03769
149.158,0.0354
149.178,0.01491
149.2,0.00845
149.22,-0.00225
149.242,-0.00234
149.262,0.00606
149.28,0.02907
149.298,0.02323
149.32,0.01213
149.34,-0.00674
149.362,0.00175
149.384,-0.0018
149.4,0.0049
149.438,0.01712
149.462,0.02013
149.48,0.02439
149.5,0.01078
149.542,0.0155
149.562,0.00997
149.578,0.01455
149.682,0.04066
149.704,0.03877
149.72,0.05782
149.74,0.05207
149.77,0.36688
149.844,0.10813
149.86,0.10853
149.878,0.09196
149.922,0.06923
149.96,0.04461
150.06,0.07331
150.1,0.00279
150.14,0.0062
150.162,0.02444
150.182,0.02664
150.202,0.02475
150.242,0.03113
150.264,0.02871
150.28,0.03032
150.3,0.03666
150.32,0.03374
150.342,0.02915
150.382,0.02282
150.484,0.0584
150.502,0.0712
150.522,0.06855
150.54,0.07385
150.568,0.35547
150.646,0.10445
150.66,0.10642
150.7,0.08257
150.722,0.07026
150.802,0.01626
150.84,0.05539
150.86,0.0611
150.922,0.01096
150.942,0.01613
150.964,0.02125
150.982,0.02489
151.004,0.01801
151.024,0.01096
151.042,0.02004
151.06,0.01658
151.082,0.02224
151.102,0.01756
151.124,0.01518
151.146,-0.02197
151.204,0.02318
151.222,0.02799
151.24,0.03558
151.262,0.02722
151.302,0.29797
151.346,-0.13122
151.38,0.05782
151.4,0.0487
151.42,0.03199
151.444,0.03275
151.464,0.03549
151.5,0.00126
151.522,-0.00292
151.564,0.02111
151.582,0.0345
151.602,0.0319
151.638,-0.00696
151.664,-0.00207
151.7,0.00031
151.744,0.03513
151.762,0.03877
151.782,0.02695
151.804,0.03055
151.822,0.02224
151.84,0.02035
151.902,-0.01541
151.966,0.04232
152.004,0.0434
152.026,0.03877
152.058,0.37358
152.144,0.11159
152.162,0.09793
152.182,0.07655
152.202,0.06694
152.224,0.05813
152.24,0.04906
152.262,0.04057
152.324,0.08297
152.344,0.09515
152.404,0.0022
152.424,0.01208
152.444,0.01887
152.462,0.02552
152.48,0.02592
152.504,0.0279
152.524,0.02772
152.542,0.03059
152.566,0.02623
152.584,0.02192
152.602,0.02174
152.622,0.02111
152.722,0.04942
152.744,0.05067
152.762,0.05782
152.814,0.32012
152.884,0.11339
152.904,0.1102
152.942,0.08234
152.964,0.06747
153.046,0.01599
153.066,0.03095
153.102,0.06056
153.144,0.01042
153.164,0.01851
153.184,0.01101
153.204,0.01181
153.226,0.00755
153.246,0.01433
153.264,0.01914
153.284,0.01721
153.306,0.01433
153.326,0.01923
153.344,0.02031
153.446,0.04016
153.462,0.03194
153.528,0.2805
153.572,-0.13225
153.606,0.06419
153.624,0.06527
153.666,0.04802
153.682,0.04057
153.722,0.02484
153.744,0.01869
153.766,0.01181
153.786,0.0301
153.806,0.04811
153.884,-0.00544
153.906,-0.00809
153.942,0.00651
153.966,0.01788
153.984,0.02331
154.006,0.02188
154.024,0.02691
154.046,0.03181
154.066,0.02785
154.088,-0.0102
154.146,0.0487
154.166,0.04964
154.184,0.05678
154.202,0.03172
154.246,0.36976
154.286,-0.10898
154.324,0.10458
154.346,0.0947
154.364,0.0823
154.388,0.07134
154.404,0.08046
154.424,0.06437
154.468,0.04654
154.486,0.04766
154.508,0.07008
154.526,0.08904
154.584,-0.00575
154.628,0.01316
154.644,0.023
154.664,0.03077
154.684,0.02835
154.706,0.02713
154.724,0.03001
154.746,0.03419
154.764,0.02426
154.786,0.02848
154.89,0.04748
154.908,0.05229
154.924,0.04919
154.972,0.31504
155.066,0.11267
155.126,0.07929
155.148,0.06455
155.164,0.05373
155.184,0.03733
155.208,0.03482
155.246,0.05314
155.306,0.00889
155.326,0.01168
155.346,0.01532
155.368,0.01469
155.39,0.0181
155.406,0.01114
155.426,0.02066
155.448,0.02035
155.466,0.02066
155.488,0.023
155.504,0.02111
155.526,-0.0124
155.61,0.04798
155.628,0.03774
155.646,0.03288
155.688,0.27704
155.73,-0.11626
155.766,0.07502
155.786,0.06357
155.806,0.05085
155.828,0.05305
155.846,0.05341
155.868,0.02758
155.906,0.00175
155.928,0.01581
155.946,0.02933
155.968,0.04676
155.986,0.04187
156.006,0.02066
156.028,0.0053
156.046,0.00642
156.072,0.00341
156.086,0.00377
156.126,0.02048
156.148,0.02107
156.164,0.01927
156.182,0.01172
156.208,0.0212
156.228,0.01747
156.326,0.0323
156.344,0.03225
156.364,0.03477
156.418,0.29097
156.51,0.08522
156.548,0.06078
156.57,0.06011
156.584,0.05198
156.606,0.03383
156.648,0.01963
156.668,0.04048
156.69,0.05768
156.704,0.06487
156.726,0.03181
156.768,-0.00153
156.788,0.00508
156.81,0.00705
156.828,0.03113
156.848,0.03473
156.884,0.01828
156.908,0.02655
156.928,0.0212
156.948,0.02093
156.97,0.01581
156.988,0.019
157.008,-0.01698
157.09,0.05642
157.106,0.06658
157.132,0.05422
157.166,0.38732
157.208,-0.08189
157.246,0.14106
157.266,0.11662
157.288,0.09717
157.308,0.0894
157.346,0.06896
157.368,0.05624
157.408,0.04843
157.428,0.07457
157.45,0.08189
157.512,0.00939
157.528,0.02727
157.55,0.02641
157.566,0.02439
157.588,0.02691
157.608,0.01747
157.628,0.01995
157.648,0.02138
157.668,0.02331
157.706,0.01298
157.726,-0.01397
157.752,-0.06339
157.79,0.04564
157.808,0.04438
157.83,0.03288
157.886,0.26612
157.928,-0.10377
157.97,0.07965
157.988,0.07255
158.03,0.05782
158.048,0.05629
158.07,0.03814
158.09,0.01873
158.106,-0.00018
158.152,0.01977
158.168,0.02929
158.208,-0.00018
158.23,0.00341
158.248,-0.0058
158.272,-0.00544
158.292,-0.00288
158.308,0.0093
158.328,0.0124
158.35,0.01083
158.39,0.0106
158.408,0.0142
158.428,0.00773
158.532,0.03095
158.548,0.03428
158.57,0.03598
158.59,0.03576
158.618,0.33274
158.69,0.0942
158.71,0.08832
158.732,0.07322
158.75,0.07547
158.768,0.06379
158.792,0.06932
158.808,0.06208
158.85,0.03765
158.892,0.07318
158.91,0.08032
158.948,-0.00144
158.97,-0.0058
158.99,0.00642
159.01,0.01029
159.03,0.01689
159.052,0.01258
159.07,0.01756
159.09,0.02102
159.108,0.01676
159.132,0.01496
159.152,0.01792
159.17,0.01977
159.19,0.01873
159.212,0.01244
159.312,0.03976
159.328,0.05036
159.348,0.05521
159.372,0.05117
159.4,0.36783
159.472,0.1314
159.49,0.12668
159.51,0.11195
159.528,0.10049
159.548,0.09218
159.57,0.08109
159.588,0.07475
159.61,0.05085
159.632,0.05054
159.672,0.07938
159.694,0.08145
159.752,0.01325
159.772,0.01532
159.794,0.02107
159.812,0.0261
159.832,0.02552
159.87,0.01815
159.912,0.01721
159.93,0.02305
159.97,0.01761
159.992,0.00773
160.01,-0.02525
160.072,0.03468
160.092,0.04546
160.11,0.04155
160.13,0.04344
160.172,0.30386
160.214,-0.09021
160.252,0.09025
160.27,0.07664
160.292,0.06402
160.312,0.06523
160.41,0.00858
160.434,0.02821
160.452,0.03585
160.472,0.03019
160.492,0.00719
160.534,-0.00112
160.55,0.00027
160.57,0.0018
160.592,0.0022
160.612,0.00831
160.634,0.00031
160.652,0.00957
160.674,-0.00121
160.692,0.00966
160.71,0.00198
160.73,4e-05
160.77,-0.03576
160.832,0.03216
160.854,0.03796
160.87,0.03688
160.892,0.03338
160.926,0.33297
161.012,0.09003
161.032,0.08225
161.054,0.05957
161.072,0.05207
161.094,0.05521
161.132,0.03199
161.172,0.03594
161.194,0.06649
161.212,0.07363
161.252,0.01649
161.272,-0.00121
161.292,0.00355
161.314,0.01024
161.334,0.01914
161.35,0.03275
161.374,0.01671
161.392,0.02323
161.412,0.01968
161.434,0.02659
161.452,0.01469
161.476,0.01294
161.49,0.01181
161.512,0.00916
161.532,0.00575
161.55,-0.01262
161.572,-0.03163
161.596,-0.05719
161.652,0.05458
161.672,0.05063
161.692,0.05822
161.73,0.3924
161.812,0.11842
161.834,0.10368
161.854,0.08913
161.874,0.07911
161.91,0.06918
161.934,0.05741
161.954,0.03836
161.992,0.07691
162.014,0.09685
162.072,0.01015
162.114,0.01491
162.136,0.0288
162.152,0.02597
162.174,0.02498
162.192,0.01635
162.212,0.0142
162.232,0.0221
162.254,0.01995
162.274,0.03288
162.292,0.01604
162.316,0.0088
162.434,0.05826
162.452,0.05521
162.474,0.06047
162.518,0.31617
162.558,-0.10894
162.594,0.09326
162.632,0.0708
162.654,0.06056
162.672,0.05669
162.694,0.04128
162.712,0.02156
162.732,0.00773
162.792,0.04676
162.81,0.04852
162.834,0.02331
162.894,0.02031
162.914,0.02318
162.954,0.02206
162.972,0.01294
162.994,0.01599
163.016,0.01289
163.034,0.01289
163.054,0.00584
163.074,0.00571
163.092,-0.0066
163.112,-0.04097
163.176,0.02331
163.192,0.03181
163.214,0.03477
163.236,0.02978
163.272,0.31558
163.312,-0.12116
163.354,0.08158
163.372,0.07318
163.414,0.04712
163.434,0.05139
163.454,0.03288
163.474,0.01244
163.494,0.0035
163.534,0.04775
163.554,0.05341
163.572,0.04582
163.636,-0.0066
163.656,0.00359
163.676,0.00984
163.714,0.01276
163.732,0.0142
163.752,0.01491
163.774,0.01873
163.794,0.01244
163.816,0.01114
163.894,0.03603
163.914,0.04959
163.956,0.04708
163.996,0.38921
164.038,-0.09106
164.076,0.12722
164.094,0.11339
164.114,0.09447
164.136,0.08571
164.156,0.07933
164.176,0.0726
164.194,0.05314
164.216,0.04097
164.238,0.04021
164.256,0.06653
164.272,0.07354
164.296,0.06918
164.338,-0.00759
164.356,0.00319
164.374,0.00719
164.398,0.00867
164.414,0.01873
164.434,0.0243
164.456,0.02323
164.474,0.02066
164.498,0.01851
164.516,0.02031
164.534,0.01577
164.616,0.04025
164.636,0.05409
164.656,0.05013
164.674,0.04497
164.718,0.37466
164.76,-0.11626
164.798,0.13028
164.814,0.13975
164.836,0.11163
164.856,0.10278
164.878,0.09901
164.956,0.05126
164.98,0.06038
164.996,0.08082
165.014,0.07179
165.056,0.01532
165.078,0.0093
165.098,0.00849
165.116,0.02597
165.138,0.01613
165.156,0.01927
165.176,0.02749
165.198,0.02498
165.216,0.02749
165.238,0.02619
165.336,0.04632
165.358,0.05359
165.378,0.04268
165.418,0.26913
165.462,-0.11424
165.496,0.07857
165.514,0.07426
165.536,0.05849
165.558,0.04919
165.576,0.05382
165.616,0.01676
165.638,0.01033
165.658,0.01262
165.678,0.02749
165.698,0.04057
165.718,0.02237
165.734,0.00822
165.756,0.00337
165.776,-0.00773
165.796,0.00431
165.836,-0.00081
165.896,-0.01698
165.918,-0.01204
165.938,-0.03464
166.002,0.01541
166.02,0.03163
166.036,0.03055
166.058,0.02592
166.094,0.2849
166.136,-0.12165
166.178,0.07242
166.216,0.04762
166.238,0.05207
166.258,0.05494
166.296,0.02152
166.32,0.00934
166.338,0.03019
166.358,0.04632
166.376,0.05696
166.42,0.0243
166.438,0.01694
166.458,0.0159
166.478,0.00319
166.498,0.00454
166.516,0.00939
166.536,0.01303
166.598,0.02138
166.618,0.02547
166.656,-0.01792
166.68,-0.04609
166.72,0.04977
166.742,0.05067
166.78,0.04021
166.808,0.32025
166.9,0.09771
166.916,0.08715
166.938,0.0743
166.96,0.07983
166.978,0.07421
167.0,0.06689
167.02,0.05409
167.038,0.05013
167.062,0.07134
167.08,0.09699
167.098,0.09762
167.158,0.01181
167.178,0.02588
167.198,0.03041
167.22,0.03827
167.238,0.03616
167.278,0.03005
167.3,0.03311
167.32,0.03877
167.358,0.0106
167.438,0.07206
167.476,0.06864
167.516,0.31823
167.558,-0.05818
167.596,0.11172
167.62,0.08949
167.66,0.07008
167.68,0.07066
167.698,0.05207
167.72,0.02502
167.74,0.01074
167.764,0.02188
167.78,0.03252
167.8,0.03612
167.818,0.02785
167.838,0.01348
167.858,0.02062
167.878,0.01096
167.898,0.01177
167.92,0.02143
167.938,0.01599
167.962,0.01065
167.978,0.00382
168.002,0.01563
168.02,0.019
168.038,0.01891
168.06,-0.02089
168.142,0.03216
168.16,0.02691
168.182,0.02031
168.22,0.2853
168.262,-0.12021
168.3,0.06738
168.318,0.05678
168.338,0.03612
168.36,0.03791
168.378,0.04209
168.4,0.03333
168.418,0.01316
168.458,0.0058
168.5,0.04115
168.56,-0.00045
168.58,0.00126
168.6,-0.00081
168.68,0.02111
168.702,0.01348
168.72,0.02331
168.758,0.02044
168.776,0.01469
168.798,-0.0124
168.864,0.03877
168.88,0.05458
168.9,0.04349
168.954,0.33494
168.994,-0.08854
169.022,0.09326
169.04,0.10638
169.08,0.09434
169.102,0.09546
169.122,0.08836
169.14,0.08657
169.182,0.04798
169.22,0.08194
169.238,0.07749
169.302,0.01927
169.34,0.0354
169.36,0.04137
169.38,0.0385
169.4,0.03513
169.422,0.0341
169.442,0.03199
169.46,0.03288
169.48,0.04052
169.542,0.00175
169.62,0.06235
169.642,0.05966
169.658,0.0482
169.704,0.29236
169.744,-0.09169
169.782,0.08437
169.8,0.08284
169.822,0.06994
169.84,0.06694
169.86,0.06343
169.88,0.04371
169.9,0.02224
169.918,0.01024
169.96,0.02606
169.982,0.03738
170.042,0.00557
170.062,0.00606
170.1,0.02026
170.124,0.01581
170.142,0.01146
170.16,0.01491
170.18,0.0106
170.2,0.00916
170.22,0.0221
170.282,0.00858
170.302,-0.02641
170.382,0.0252
170.404,0.02606
170.44,0.02462
170.47,0.27259
170.542,0.06689
170.56,0.07008
170.582,0.05229
170.624,0.04119
170.64,0.02475
170.66,0.02013
170.682,0.00562
170.7,-0.00521
170.762,0.03199
170.802,0.00198
170.842,-0.00305
170.864,0.00858
170.882,0.01536
170.9,0.02475
170.922,0.02331
170.942,0.01402
170.964,0.02044
170.982,0.02206
171.0,0.0146
171.02,0.02062
171.04,0.02089
171.062,0.01114
171.078,0.00022
171.102,0.00822
171.122,-0.03104
171.182,0.04016
171.202,0.05409
171.222,0.05588
171.242,0.05207
171.26,0.04735
171.286,0.36639
171.326,-0.07938
171.362,0.10642
171.402,0.07826
171.466,0.06145
171.48,0.05647
171.504,0.04784
171.524,0.04888
171.544,0.06635
171.566,0.09065
171.58,0.09775
171.622,0.0279
171.644,0.01743
171.664,0.02677
171.684,0.04151
171.7,0.03679
171.724,0.04259
171.766,0.02628
171.784,0.03468
171.804,0.02907
171.822,0.03329
171.844,0.02767
171.86,0.02354
171.882,-0.01195
171.944,0.05144
171.964,0.05517
171.982,0.06006
172.004,0.06285
172.04,0.31338
172.082,-0.08046
172.126,0.10013
172.162,0.06819
172.18,0.06509
172.202,0.05782
172.224,0.04618
172.324,0.04187
172.364,0.01065
172.404,0.00314
172.422,0.01348
172.444,0.01438
172.462,0.00503
172.486,0.00485
172.502,0.01204
172.524,0.01532
172.542,0.01518
172.566,0.01464
172.602,-0.02785
172.662,0.03275
172.682,0.03756
172.702,0.03468
172.724,0.02974
172.756,0.27457
172.842,0.06204
172.862,0.04519
172.882,0.04048
172.9,0.02974
172.924,0.03522
172.944,0.02102
172.964,0.00031
172.984,-0.00355
173.002,0.00153
173.044,0.03684
173.084,0.00031
173.102,-0.00544
173.124,-0.0106
173.144,0.00449
173.168,0.00647
173.182,0.01509
173.202,0.02057
173.224,0.02615
173.242,0.03001
173.262,0.02835
173.306,0.02296
173.322,0.01959
173.346,-0.0212
173.422,0.05611
173.442,0.04519
173.462,0.04164
173.502,0.338
173.586,0.10808
173.622,0.08612
173.644,0.07349
173.666,0.0717
173.682,0.06828
173.704,0.04043
173.784,0.10081
173.866,0.01837
173.922,0.04007
173.944,0.03513
173.962,0.02969
173.986,0.03378
174.002,0.03652
174.022,0.03594
174.042,0.04205
174.126,0.04366
174.146,0.05894
174.166,0.04694
174.182,0.04057
174.228,0.33872
174.268,-0.09245
174.308,0.10211
174.326,0.09757
174.346,0.08445
174.364,0.0761
174.382,0.06797
174.442,0.03504
174.466,0.02444
174.504,0.04946
174.522,0.04128
174.562,0.0142
174.604,0.01042
174.626,0.02318
174.646,0.02354
174.662,0.02107
174.684,0.01676
174.706,0.01743
174.724,0.02381
174.742,0.01792
174.844,0.04375
174.884,0.03567
174.926,0.27367
174.968,-0.11231
175.006,0.06199
175.024,0.06473
175.086,0.04474
175.122,0.00584
175.146,0.00759
175.186,0.02907
175.204,0.04286
175.222,0.02821
175.266,-0.01276
175.284,-0.01491
175.304,-0.01572
175.344,0.01141
175.364,0.00867
175.384,0.00566
175.406,0.01581
175.424,0.01613
175.442,0.00571
175.466,0.01469
175.566,0.04313
175.584,0.05013
175.604,0.03706
175.648,0.32488
175.688,-0.10575
175.726,0.08499
175.746,0.08365
175.766,0.07053
175.786,0.06487
175.804,0.07215
175.826,0.05449
175.846,0.03172
175.866,0.03145
175.904,0.05561
175.926,0.0832
175.946,0.07493
176.004,0.01411
176.026,0.01514
176.046,0.02659
176.064,0.04353
176.084,0.04003
176.104,0.02403
176.126,0.02475
176.146,0.03729
176.164,0.03288
176.266,0.07385
176.286,0.07399
176.306,0.0611
176.35,0.32052
176.39,-0.07817
176.426,0.10382
176.446,0.09605
176.466,0.07835
176.524,0.05714
176.546,0.03711
176.568,0.0208
176.584,0.02561
176.624,0.04834
176.688,0.01159
176.708,0.01455
176.728,0.02165
176.766,0.01406
176.784,0.00305
176.806,0.01249
176.826,0.01743
176.846,0.01828
176.884,0.01586
176.988,0.03257
177.006,0.03275
177.068,0.27726
177.11,-0.12286
177.146,0.05144
177.168,0.05332
177.188,0.04155
177.206,0.04438
177.226,0.04766
177.268,0.02102
177.33,0.02677
177.35,0.04528
177.408,-0.00341
177.424,-0.00588
177.448,0.0044
177.464,0.00314
177.506,0.01801
177.526,0.0142
177.546,0.00894
177.568,0.01698
177.584,0.01581
177.626,0.01959
177.648,0.01815
177.666,-0.01743
177.744,0.04456
177.764,0.03666
177.786,0.04191
177.828,0.33782
177.868,-0.09825
177.908,0.09802
177.924,0.09187
177.944,0.06824
177.986,0.07911
178.024,0.05049
178.048,0.03468
178.106,0.08967
178.128,0.07794
178.186,0.01963
178.226,0.03594
178.246,0.04299
178.266,0.03949
178.286,0.03756
178.306,0.03037
178.348,0.03396
178.368,0.02839
178.468,-0.04039
178.488,0.03428
178.508,0.05413
178.526,0.06491
178.548,0.05597
178.568,0.06127
178.598,0.31356
178.668,0.10368
178.686,0.10341
178.708,0.08944
178.748,0.0699
178.786,0.03832
178.804,0.0142
178.824,0.01599
178.85,0.02826
178.87,0.03019
178.886,0.04438
178.924,0.01491
178.948,0.01864
178.966,0.01402
178.99,0.02282
179.006,0.02534
179.046,0.01739
179.068,0.01613
179.084,0.01873
179.11,0.01604
179.128,0.02129
179.148,0.01617
179.246,0.0398
179.268,0.03697
179.286,0.02668
179.306,0.02282
179.338,0.25907
179.38,-0.11927
179.41,0.0597
179.428,0.06204
179.448,0.04236
179.466,0.03163
179.486,0.03482
179.508,0.03473
179.546,-0.00175
179.566,-0.0119
179.628,0.02691
179.644,0.01033
179.668,-0.00499
179.688,0.00386
179.706,0.00031
179.728,0.00737
179.752,0.01177
179.766,0.02017
179.79,0.01743
179.83,0.0164
179.85,0.0088
179.866,0.0106
179.888,0.0124
179.906,0.01361
180.01,0.04349
180.03,0.04263
180.052,0.04277
180.068,0.05418
180.098,0.33921
180.138,-0.09003
180.17,0.10548
180.186,0.10871
180.208,0.09003
180.226,0.07349
180.248,0.08472
180.27,0.07695
180.288,0.06864
180.306,0.05373
180.388,0.09326
180.448,0.01411
180.468,0.02763
180.508,0.04497
180.528,0.0425
180.55,0.03684
180.568,0.03203
180.588,0.03711
180.646,0.02857
180.668,0.03073
180.75,0.03612
180.77,0.06357
180.79,0.06186
180.81,0.06127
180.828,0.05858
180.854,0.2911
180.93,0.08549
180.946,0.08607
180.97,0.07206
181.01,0.065
181.066,0.00539
181.09,0.00422
181.132,0.03576
181.148,0.04456
181.19,0.00548
181.208,0.01123
181.23,0.01006
181.25,0.01577
181.27,0.01348
181.288,0.01415
181.306,0.00854
181.328,0.00665
181.35,0.00395
181.37,0.00925
181.392,0.00606
181.428,-0.04079
181.49,0.01887
181.508,0.02435
181.528,0.02857
181.582,0.27619
181.668,0.07601
181.686,0.05337
181.73,0.04632
181.75,0.04479
181.77,0.0279
181.788,0.01649
181.85,0.0473
181.868,0.06271
181.888,0.04052
181.928,-0.00809
181.952,-0.01181
181.97,-0.0022
181.992,0.01415
182.03,0.027
182.048,0.0212
182.068,0.01671
182.09,0.02426
182.112,0.02498
182.128,0.02907
182.148,0.02327
182.25,0.04798
182.27,0.05409
182.29,0.05588
182.336,0.33369
182.41,0.10135
182.428,0.09793
182.45,0.0841
182.47,0.07983
182.494,0.073
182.51,0.08037
182.548,0.04726
182.568,0.04331
182.59,0.06756
182.612,0.09986
182.628,0.10099
182.69,0.01312
182.712,0.01671
182.732,0.03288
182.75,0.03482
182.772,0.02907
182.81,0.03221
182.832,0.03199
182.91,0.03693
182.966,-0.01851
183.028,0.04825
183.05,0.0624
183.07,0.06065
183.088,0.05777
183.122,0.29398
183.194,0.08167
183.21,0.09613
183.23,0.07134
183.27,0.05894
183.29,0.0487
183.35,0.01397
183.374,0.01096
183.392,0.0354
183.412,0.04618
183.43,0.02898
183.45,0.00449
183.47,-0.00031
183.512,0.00377
183.55,0.02143
183.572,0.01545
183.59,0.01038
183.612,0.00916
183.632,0.0097
183.65,0.0106
183.668,0.00863
183.772,0.02713
183.79,0.0133
183.81,0.01864
183.854,0.28611
183.894,-0.13787
183.932,0.06244
183.95,0.05552
183.968,0.03491
183.99,0.03666
184.012,0.03684
184.03,0.03598
184.05,0.01981
184.068,0.00777
184.09,0.01244
184.13,0.04618
184.152,0.05207
184.192,-0.00328
184.21,-0.01936
184.252,0.00288
184.294,0.01671
184.312,0.01959
184.33,0.01541
184.352,0.0248
184.372,0.0208
184.39,0.02318
184.43,-0.02677
184.51,0.04461
184.534,0.04106
184.554,0.04838
184.592,0.38845
184.672,0.11091
184.69,0.10202
184.714,0.07929
184.732,0.08392
184.75,0.0827
184.77,0.07228
184.832,0.07507
184.872,0.10247
184.932,0.00449
184.952,0.00809
184.972,0.02066
184.99,0.01891
185.012,0.027
185.034,0.03181
185.054,0.02758
185.072,0.02695
185.092,0.03504
185.112,0.03756
185.132,0.03145
185.148,0.02403
185.172,-0.00588
185.252,0.05499
185.272,0.05552
185.292,0.04618
185.33,0.31787
185.372,-0.08374
185.41,0.10418
185.45,0.07565
185.47,0.07507
185.494,0.06685
185.53,0.03064
185.554,0.02246
185.574,0.02044
185.592,0.03827
185.614,0.05674
185.67,0.01024
185.692,0.00454
185.716,-0.00103
185.732,0.01752
185.754,0.00606
185.772,0.00782
185.792,0.01599
185.812,0.02237
185.834,0.02048
185.852,0.01635
185.874,0.01482
185.954,0.019
185.972,0.03252
185.992,0.03037
186.01,0.02893
186.056,0.28719
186.098,-0.13526
186.152,0.06523
186.17,0.04092
186.192,0.04223
186.214,0.0451
186.232,0.0288
186.252,0.0124
186.332,0.04942
186.352,0.04915
186.39,-0.00162
186.412,-0.00692
186.432,-0.00117
186.456,0.00571
186.474,0.015
186.494,0.02659
186.51,0.01828
186.53,0.00606
186.552,0.02188
186.59,0.02039
186.612,0.01671
186.634,-0.01846
186.692,0.03306
186.716,0.04039
186.734,0.04142
186.752,0.04263
186.794,0.36608
186.834,-0.08985
186.874,0.10058
186.894,0.09721
186.934,0.06774
186.952,0.0681
186.97,0.06222
187.054,0.07318
187.072,0.08055
187.134,-0.00606
187.156,-0.00849
187.174,0.0009
187.192,0.0164
187.214,0.02147
187.234,0.02412
187.254,0.01851
187.274,0.01828
187.292,0.01707
187.314,0.02736
187.332,0.02327
187.35,0.01756
187.372,0.00305
187.432,0.0575
187.45,0.06774
187.472,0.05782
187.494,0.05822
187.528,0.3464
187.612,0.13971
187.632,0.12295
187.654,0.09411
187.674,0.0876
187.69,0.08513
187.712,0.06815
187.734,0.04807
187.756,0.03652
187.774,0.05171
187.798,0.07116
187.814,0.08082
187.874,0.01384
187.896,0.01168
187.914,0.02084
187.932,0.02588
187.952,0.01707
187.976,0.01554
187.994,0.02331
188.012,0.02156
188.034,0.01545
188.054,0.02318
188.072,0.02031
188.09,-0.01262
188.116,-0.05826
188.154,0.04344
188.172,0.05
188.192,0.03576
188.214,0.03185
188.246,0.24757
188.334,0.07336
188.372,0.04546
188.39,0.04083
188.414,0.05072
188.45,0.00521
188.476,0.00031
188.492,0.01105
188.514,0.02758
188.534,0.03715
188.572,0.00386
188.592,-0.00624
188.614,-0.00845
188.632,-0.00112
188.652,-0.00229
188.674,0.00687
188.694,0.00467
188.712,0.00067
188.734,0.00144
188.754,0.00889
188.774,0.00737
188.792,0.00606
188.816,-0.02781
188.876,0.02331
188.894,0.03958
188.912,0.02785
188.936,0.03756
188.974,0.31302
189.014,-0.10831
189.056,0.08863
189.072,0.07255
189.092,0.04789
189.11,0.0469
189.156,0.03522
189.174,0.02763
189.192,0.00975
189.216,0.01402
189.254,0.06271
189.272,0.04991
189.314,-0.00359
189.334,-0.0058
189.354,0.00418
189.374,0.004
189.392,0.01653
189.414,0.01298
189.432,0.01168
189.454,0.00831
189.472,0.02331
189.496,0.01172
189.534,0.02251
189.554,0.00786
189.572,-0.00328
189.592,-0.03059
189.654,0.05202
189.67,0.05346
189.694,0.05323
189.714,0.06716
189.75,0.37717
189.83,0.13643
189.874,0.10804
189.894,0.09667
189.914,0.09128
189.934,0.08288
189.976,0.0509
189.994,0.06505
190.034,0.09492
190.094,0.02251
190.114,0.03091
190.136,0.03621
190.158,0.03913
190.17,0.02929
190.196,0.02188
190.216,0.02606
190.234,0.02004
190.254,0.03014
190.276,0.02731
190.296,0.03073
190.374,0.04569
190.396,0.04632
190.412,0.05031
190.476,0.29056
190.52,-0.0978
190.556,0.07601
190.574,0.0814
190.632,0.04748
190.674,0.00979
190.694,0.00422
190.756,0.02686
190.774,0.02228
190.816,-0.00036
190.834,0.00418
190.874,0.0027
190.894,0.00934
190.914,0.00072
190.934,0.01002
190.954,0.00755
190.974,0.00409
190.994,-0.0022
191.014,-0.00036
191.052,-0.05265
191.114,0.02125
191.134,0.02138
191.176,0.01977
191.206,0.26015
191.276,0.06002
191.294,0.0611
191.332,0.04766
191.358,0.04906
191.374,0.0478
191.392,0.03477
191.416,0.01321
191.434,0.01631
191.454,0.03185
191.476,0.04582
191.494,0.05036
191.534,0.00845
191.556,0.00903
191.592,0.01671
191.636,0.03414
191.654,0.02197
191.676,0.01923
191.696,0.01743
191.714,0.04057
191.734,0.02749
191.754,0.02583
191.774,0.02287
191.79,0.01168
191.812,-0.02606
191.836,-0.05022
191.878,0.03738
191.896,0.04726
191.918,0.04164
191.932,0.04744
191.968,0.3504
192.054,0.13387
192.072,0.12129
192.092,0.10476
192.112,0.10382
192.134,0.10094
192.172,0.0557
192.236,0.07835
192.25,0.07722
192.318,0.01586
192.334,0.04241
192.352,0.03675
192.374,0.04115
192.394,0.04564
192.414,0.02978
192.434,0.0372
192.456,0.02686
192.476,0.02727
192.494,0.03396
192.516,0.02498
192.534,0.02511
192.552,-0.00898
192.578,-0.04865
192.636,0.06253
192.656,0.05058
192.672,0.04564
192.712,0.28131
192.752,-0.06963
192.794,0.10193
192.812,0.07664
192.834,0.07219
192.854,0.06357
192.912,0.00988
192.936,0.00773
192.996,0.02772
193.014,0.01402
193.054,0.0062
193.078,0.0027
193.096,0.01276
193.114,0.01101
193.134,0.01438
193.156,0.01276
193.174,0.00741
193.214,0.00283
193.234,0.01074
193.256,-0.00256
193.354,0.0142
193.376,0.02246
193.396,0.015
193.438,0.28086
193.478,-0.11905
193.514,0.06509
193.534,0.06343
193.574,0.04043
193.594,0.05054
193.612,0.03621
193.634,0.02987
193.654,0.01002
193.676,0.01995
193.696,0.03288
193.714,0.05782
193.772,0.01172
193.796,0.00633
193.81,0.01065
193.856,0.02938
193.874,0.02965
193.894,0.02534
193.914,0.02538
193.934,0.01649
193.952,0.01815
193.978,0.01541
193.994,0.02179
194.074,0.02588
194.094,0.04609
194.114,0.05148
194.136,0.0456
194.18,0.35318
194.222,-0.09456
194.258,0.11994
194.276,0.12372
194.294,0.11195
194.334,0.0995
194.35,0.09232
194.376,0.06756
194.394,0.0606
194.414,0.05422
194.456,0.09941
194.536,0.02246
194.554,0.02138
194.576,0.03796
194.592,0.04474
194.634,0.02287
194.654,0.02543
194.676,0.03688
194.694,0.04016
194.712,0.03836
194.734,0.04479
194.754,0.02857
194.774,0.02296
194.818,-0.01204
194.874,0.03203
194.894,0.05481
194.914,0.04775
194.932,0.04703
194.976,0.28018
195.02,-0.10692
195.056,0.08805
195.076,0.08311
195.094,0.06559
195.114,0.05876
195.134,0.04474
195.172,0.0142
195.196,-0.00593
195.216,-0.00391
195.236,0.01518
195.256,0.02538
195.274,0.03482
195.314,-0.00544
195.334,-0.00481
195.352,-0.00499
195.376,0.00022
195.394,0.01033
195.416,0.01002
195.436,0.00588
195.476,0.00957
195.494,0.01599
195.516,0.01047
195.532,-0.00049
195.554,-0.02655
195.616,0.02534
195.636,0.02318
195.656,0.0146
195.714,0.28409
195.754,-0.11159
195.796,0.06172
195.834,0.04115
195.856,0.03944
195.876,0.0504
195.894,0.03868
195.916,0.0173
195.934,0.00952
195.956,0.027
195.994,0.05269
196.014,0.04632
196.034,0.01181
196.054,-0.00872
196.076,0.00162
196.096,0.00701
196.116,0.01357
196.134,0.02156
196.152,0.01869
196.174,0.02978
196.192,0.02233
196.216,0.0283
196.234,0.01725
196.254,0.01945
196.294,-0.00355
196.358,0.03711
196.376,0.0336
196.396,0.03464
196.416,0.0376
196.452,0.38117
196.492,-0.08832
196.536,0.13953
196.574,0.10889
196.598,0.09515
196.612,0.09474
196.632,0.08787
196.696,0.06725
196.714,0.09438
196.732,0.09735
196.796,0.00629
196.816,0.01959
196.834,0.03783
196.856,0.03482
196.874,0.04169
196.892,0.03872
196.914,0.03482
196.936,0.04259
196.954,0.04438
196.972,0.04335
196.994,0.03796
197.01,0.019
197.032,-0.00544
197.054,-0.03989
197.096,0.05674
197.112,0.05121
197.154,0.04384
197.184,0.26774
197.272,0.08657
197.314,0.0611
197.374,0.02403
197.414,0.01155
197.434,0.01397
197.474,0.03616
197.494,0.01357
197.514,-0.00759
197.536,-0.00773
197.554,-0.00373
197.574,0.00584
197.596,-0.00175
197.616,0.00072
197.632,0.00665
197.654,0.00431
197.676,0.00575
197.694,0.0106
197.714,0.01411
197.734,-0.02489
197.794,0.03863
197.812,0.04304
197.838,0.02682
197.852,0.01819
197.892,0.27699
197.932,-0.11267
197.976,0.06918
197.994,0.06222
198.034,0.05782
198.052,0.06388
198.072,0.03769
198.116,0.01352
198.136,0.02556
198.154,0.05108
198.172,0.06415
198.192,0.05049
198.254,-0.01518
198.274,-0.00993
198.294,-0.00854
198.312,0.00148
198.332,0.00216
198.358,0.00135
198.394,0.01671
198.414,0.00916
198.432,0.0088
198.452,-0.02844
198.516,0.03971
198.534,0.0575
198.552,0.04012
198.572,0.04694
198.612,0.33876
198.652,-0.1035
198.692,0.09537
198.714,0.07763
198.736,0.06002
198.774,0.07655
198.794,0.08032
198.814,0.06932
198.836,0.06181
198.852,0.07614
198.874,0.10296
198.894,0.115
198.954,0.02031
198.974,0.01873
198.996,0.02331
199.012,0.03576
199.032,0.03854
199.094,0.03234
199.114,0.02282
199.136,0.03073
199.154,0.02749
199.174,0.0009
199.254,0.07224
199.274,0.06343
199.292,0.06307
199.332,0.32232
199.372,-0.08019
199.412,0.09699
199.432,0.08684
199.472,0.07277
199.494,0.07511
199.534,0.03702
199.552,0.02484
199.574,0.03347
199.614,0.05638
199.652,0.01325
199.672,-0.00067
199.692,0.00112
199.714,0.00566
199.734,0.00422
199.754,0.00499
199.774,0.00337
199.792,0.00898
199.812,0.00759
199.832,0.01181
199.85,0.01033
199.892,-0.02305
199.954,0.02709
199.972,0.03338
199.994,0.02579
200.012,0.03401
200.05,0.27839
200.092,-0.12273
200.132,0.05984
200.152,0.05072
200.172,0.04079
200.194,0.03243
200.212,0.03769
200.252,0.004
200.332,0.04447
200.35,0.03652
200.39,-0.01797
200.412,-0.00674
200.432,-0.01253
200.452,-0.00202
200.47,0.0027
200.496,0.00243
200.514,0.00247
200.532,0.01783
200.556,0.01577
200.572,0.02161
200.594,0.01743
200.614,0.01568
200.672,-0.05108
200.696,0.02893
200.712,0.04838
200.734,0.05251
200.752,0.05278
200.772,0.04366
200.802,0.33953
200.876,0.09843
200.892,0.11222
200.912,0.08836
200.934,0.08432
200.974,0.08621
200.994,0.07897
201.012,0.06127
201.07,0.10642
201.09,0.10382
201.154,0.00782
201.17,0.01721
201.19,0.02615
201.214,0.04128
201.232,0.03374
201.254,0.03199
201.272,0.02493
201.29,0.02727
201.314,0.04079
201.332,0.03522
201.352,0.03374
201.386,-0.01348
201.414,-0.04137
201.434,0.04533
201.472,0.06725
201.512,0.05198
201.54,0.28337
201.612,0.09811
201.654,0.0832
201.672,0.0628
201.692,0.05409
201.712,0.04879
201.732,0.02408
201.754,0.01105
201.77,0.00162
201.792,0.00606
201.81,0.01887
201.83,0.02444
201.89,-0.02269
201.914,-0.01545
201.936,0.00162
201.954,0.01096
201.972,0.00943
201.992,0.02331
202.012,0.01509
202.032,0.01559
202.05,0.02057
202.07,0.01613
202.11,-0.02664
202.134,-0.0708
202.174,0.04398
202.192,0.04124
202.212,0.03904
202.234,0.05508
202.26,0.27569
202.3,-0.06145
202.332,0.07727
202.354,0.07673
202.368,0.06092
202.392,0.05049
202.412,0.06047
202.434,0.05099
202.472,0.02821
202.49,0.03558
202.516,0.06235
202.532,0.07313
202.552,0.08176
202.612,-0.0097
202.63,0.00211
202.652,0.00957
202.692,0.01393
202.712,0.01137
202.732,0.00535
202.75,-0.00072
202.774,0.01168
202.792,0.01995
202.83,-0.01837
202.854,-0.0823
202.892,0.04043
202.912,0.0394
202.934,0.03365
202.952,0.02215
202.984,0.29815
203.07,0.07242
203.11,0.03756
203.132,0.03473
203.15,0.03508
203.168,0.02606
203.192,0.01168
203.252,0.06307
203.268,0.06559
203.334,-0.03598
203.352,-0.02893
203.37,-0.01837
203.392,-0.01635
203.412,-0.00341
203.432,-0.00211
203.45,-0.00099
203.47,0.0058
203.49,0.00737
203.508,0.00234
203.532,0.01024
203.55,0.00606
203.57,-0.02853
203.652,0.04528
203.67,0.04874
203.692,0.04043
203.73,0.42825
203.814,0.1301
203.85,0.10377
203.87,0.0947
203.892,0.08751
203.932,0.06644
203.948,0.07349
203.992,0.09941
204.014,0.10031
204.09,-0.01119
204.112,-0.00103
204.132,0.00139
204.15,0.01352
204.17,0.01289
204.21,0.00602
204.23,-0.00588
204.25,-0.00301
204.29,-0.02875
204.37,0.04115
204.388,0.04483
204.408,0.06092
204.446,0.39671
204.512,0.15961
204.528,0.17861
204.568,0.13257
204.588,0.11878
204.608,0.10085
204.65,0.07713
204.67,0.07947
204.692,0.08571
204.71,0.09905
204.73,0.09488
204.792,-0.06424
204.81,-0.06056
204.872,-0.02156
204.89,-0.00894
204.912,-0.00234
204.932,-0.01146
204.972,-0.03181
204.992,-0.0703
205.032,0.04438
205.05,0.04748
205.072,0.03886
205.092,0.03738
205.124,0.37978
205.192,0.12403
205.208,0.14739
205.25,0.09708
205.27,0.07924
205.31,0.06694
205.33,0.05229
205.372,0.07691
205.39,0.10144
205.41,0.09941
205.468,-0.03172
205.512,-0.02516
205.532,-0.0257
205.55,-0.0195
205.568,-0.01828
205.59,-0.01635
205.61,-0.00427
205.628,-0.02857
205.712,0.03014
205.726,0.02143
205.75,0.02331
205.782,0.4061
205.87,0.16406
205.888,0.1553
205.908,0.1429
205.948,0.1256
205.97,0.10889
205.99,0.10489
206.032,0.1071
206.05,0.1394
206.15,-0.03275
206.206,0.00431
206.23,0.01168
206.25,0.01397
206.286,-0.00544
206.35,0.07731
206.374,0.07219
206.388,0.06685
206.432,0.32937
206.508,0.09438
206.53,0.09703
206.57,0.05768
206.59,0.08576
206.61,0.06747
206.628,0.05481
206.65,0.0434
206.69,0.09074
206.71,0.10009
206.77,0.03041
206.81,0.01581
206.828,0.02188
206.85,0.02552
206.872,0.0283
206.91,0.00031
206.99,0.05624
207.01,0.05732
207.032,0.04133
207.062,0.25283
207.094,-0.15525
207.106,-0.07601
207.15,0.08931
207.19,0.0686
207.228,0.0624
207.248,0.0487
207.266,0.02713
207.29,0.03504
207.312,0.05242
207.33,0.06972
207.35,0.07385
207.406,-0.01438
207.43,-0.02821
207.446,-0.0239
207.49,-0.00701
207.508,-0.00566
207.53,-0.01649
207.59,0.0451
207.608,0.05696
207.63,0.05696
207.648,0.05543
207.68,0.22677
207.712,-0.11298
207.724,-0.10162
207.77,0.05144
207.79,0.04402
207.81,0.02579
207.83,0.03522
207.85,0.02754
207.89,-0.00256
207.93,0.03275
207.966,0.06222
208.008,0.00018
208.03,-0.0257
208.05,-0.02641
208.068,-0.02066
208.088,-0.00296
208.106,-0.0088
208.146,-0.0257
208.172,-0.07493
208.228,0.06725
208.248,0.05768
208.266,0.05103
208.296,0.27115
208.368,0.07385
208.388,0.08046
208.408,0.06927
208.426,0.05054
208.45,0.05229
208.466,0.06038
208.49,0.04852
208.506,0.04277
208.532,0.04816
208.572,0.09434
208.586,0.08881
208.626,-0.01505
208.648,-0.02228
208.668,-0.01473
208.712,-0.01006
208.728,-0.00476
208.75,0.00346
208.848,0.069
208.866,0.06127
208.89,0.04919
208.906,0.04079
208.932,0.34141
208.972,-0.11419
209.008,0.09829
209.07,0.06532
209.086,0.06006
209.106,0.06756
209.128,0.0624
209.15,0.06649
209.188,0.09029
209.206,0.09362
209.268,-0.0022
209.288,-0.00651
209.308,-0.00377
209.332,-0.0071
209.368,0.00103
209.386,0.00571
209.406,0.01581
209.446,-0.00252
209.47,-0.06235
209.51,0.06357
209.53,0.07188
209.568,0.04986
209.598,0.34532
209.638,-0.10903
209.69,0.12816
209.704,0.10602
209.728,0.0845
209.748,0.08863
209.768,0.08082
209.788,0.06379
209.808,0.04726
209.83,0.04991
209.85,0.07003
209.868,0.08535
209.888,0.0814
209.926,0.01473
209.948,0.00723
209.968,0.01599
209.986,0.01756
210.008,0.01635
210.028,0.01074
210.048,0.01806
210.066,0.01509
210.086,0.02493
210.106,0.00341
210.17,0.07376
210.186,0.07713
210.206,0.08468
210.23,0.07017
210.264,0.31787
210.304,-0.0748
210.346,0.11806
210.386,0.08643
210.406,0.10036
210.428,0.09685
210.448,0.07915
210.468,0.06469
210.488,0.05575
210.506,0.07794
210.53,0.09155
210.548,0.09232
210.588,0.03432
210.606,0.02331
210.628,0.01307
210.648,0.01527
210.668,0.02331
210.688,0.02331
210.704,0.0142
210.748,0.02718
210.768,0.01977
210.788,-0.00445
210.868,0.07763
210.888,0.06851
210.908,0.05606
210.946,0.33656
210.986,-0.10781
211.026,0.07385
211.048,0.07565
211.088,0.04308
211.108,0.04097
211.166,0.01608
211.188,0.03827
211.212,0.05193
211.226,0.05782
211.288,-0.03684
211.308,-0.03347
211.348,-0.0288
211.368,-0.02821
211.428,-0.00283
211.446,-0.00305
211.466,-0.00629
211.49,-0.01402
211.586,0.02183
211.606,0.01963
211.628,0.02013
211.67,0.34231
211.71,-0.12646
211.75,0.09043
211.786,0.06685
211.808,0.04883
211.83,0.03935
211.848,0.04115
211.866,0.03401
211.888,0.02947
211.928,0.06253
211.946,0.07799
212.008,-0.03136
212.048,-0.00777
212.068,0.00737
212.09,0.00234
212.106,0.01397
212.13,0.0212
212.148,0.01815
212.168,0.0111
212.188,0.02412
212.228,0.02013
212.246,-0.01914
212.31,0.0451
212.328,0.05588
212.346,0.06307
212.37,0.05175
212.404,0.3141
212.446,-0.07808
212.486,0.10022
212.504,0.09007
212.524,0.06923
212.548,0.07116
212.586,0.05606
212.628,0.00647
212.648,0.01756
212.668,0.02331
212.688,0.03553
212.75,-0.01563
212.768,-0.01779
212.788,-0.00341
212.806,0.00975
212.826,0.02093
212.846,0.02331
212.886,0.02907
212.904,0.02857
212.944,-0.01482
213.01,0.05072
213.026,0.06038
213.046,0.05782
213.066,0.05162
213.098,0.25476
213.17,0.05624
213.186,0.06707
213.224,0.03625
213.248,0.03612
213.266,0.04317
213.288,0.03863
213.306,0.02965
213.326,0.0274
213.37,0.06249
213.386,0.06932
213.444,-0.02156
213.466,-0.02273
213.488,-0.01846
213.506,-0.00184
213.528,0.00234
213.546,0.00755
213.568,0.00171
213.588,0.00597
213.606,0.00809
213.646,0.0155
213.684,-0.0372
213.766,0.05247
213.786,0.05588
213.806,0.05373
213.836,0.34662
213.908,0.111
213.926,0.11303
213.964,0.07691
213.986,0.07107
214.006,0.06738
214.028,0.05301
214.046,0.04596
214.088,0.06653
214.106,0.09362
214.208,-0.01581
214.226,-0.00296
214.246,0.00359
214.266,0.00305
214.284,0.00202
214.324,0.00849
214.346,0.0177
214.368,0.01384
214.386,0.01505
214.404,0.00494
214.448,-0.0849
214.488,0.03841
214.506,0.0518
214.526,0.04546
214.544,0.04407
214.576,0.36329
214.666,0.11842
214.726,0.08122
214.748,0.08149
214.768,0.06235
214.786,0.06379
214.806,0.05499
214.846,0.09056
214.866,0.08441
214.926,0.00809
214.948,0.01438
214.966,0.02201
214.986,0.02269
215.006,0.02628
215.024,0.03396
215.046,0.02907
215.068,0.02848
215.084,0.03702
215.104,0.03504
215.206,0.08046
215.246,0.06127
215.284,0.23953
215.318,-0.13832
215.328,-0.07686
215.366,0.05782
215.384,0.0509
215.406,0.03805
215.428,0.03185
215.442,0.02318
215.486,0.00274
215.528,0.0022
215.566,0.03738
215.586,0.01208
215.604,-0.00795
215.684,0.12605
215.746,0.10876
215.828,0.03414
215.848,0.03724
215.866,0.02898
215.886,0.0124
215.908,0.01119
215.93,0.1128
215.964,0.03872
215.978,-0.04066
216.008,-0.01851
216.064,-0.14047
216.084,-0.11428
216.184,-0.05768
216.208,-0.05184
216.288,-0.0553
216.346,-0.05755
216.404,-0.0155
216.508,0.11064
216.528,0.11307
216.568,0.24312
216.602,0.18791
216.684,0.11828
216.706,0.12165
216.73,0.12381
216.744,0.11891
216.768,0.10099
216.786,0.08657
216.806,0.10188
216.846,0.11949
216.886,0.10144
216.908,0.09905
216.944,0.08926
216.966,0.08059
216.988,0.07543
217.008,0.07529
217.026,0.0792
217.046,0.08032
217.146,0.12057
217.168,0.119
217.226,0.27174
217.26,0.05063
217.306,0.06644
217.324,0.05642
217.368,0.03625
217.386,0.03634
217.444,-0.00234
217.486,0.02309
217.504,0.03738
217.568,-0.00629
217.584,-0.00737
217.604,-0.01312
217.624,-0.02556
217.644,-0.02462
217.666,-0.02044
217.706,-0.01851
217.726,-0.00894
217.744,-0.01599
217.764,-0.04654
217.826,0.02767
217.844,0.0336
217.886,0.01613
217.918,0.21675
217.958,-0.06451
218.0,0.01024
218.044,-0.0234
218.086,-0.01199
218.126,-0.02066
218.204,0.04344
218.284,-0.00692
218.302,-0.00323
218.324,-0.00288
218.346,0.00359
218.364,-9e-05
218.384,-0.00108
218.426,0.00359
218.444,0.00359
218.464,0.00705
218.484,0.01096
218.584,0.03877
218.606,0.04146
218.668,0.33229
218.706,-0.05301
218.742,0.09843
218.762,0.09218
218.804,0.05422
218.84,0.06357
218.884,0.03666
218.904,0.04061
218.926,0.06154
218.942,0.07587
219.046,0.00076
219.062,0.01011
219.088,0.01038
219.124,0.01119
219.146,0.02039
219.164,0.02179
219.182,0.01756
219.206,0.0164
219.226,0.0133
219.242,0.00957
219.266,-0.00431
219.402,0.04344
219.426,0.04933
219.444,0.04739
219.468,0.3597
219.51,-0.10615
219.546,0.12107
219.606,0.07462
219.644,0.065
219.666,0.05382
219.726,0.06932
219.744,0.07817
219.804,0.00809
219.85,0.01707
219.866,0.0345
219.884,0.03522
219.904,0.02264
219.926,0.01905
219.984,0.03342
220.002,0.02785
220.024,0.02907
220.086,0.00647
220.184,0.04861
220.204,0.05773
220.228,0.05499
220.27,0.2831
220.344,0.08068
220.362,0.08248
220.384,0.06604
220.424,0.04771
220.442,0.04838
220.482,0.01945
220.504,0.02574
220.52,0.04313
220.56,0.07138
220.582,0.04596
220.644,0.01276
220.684,0.02323
220.704,0.03077
220.722,0.02534
220.746,0.02547
220.764,0.0288
220.782,0.02628
220.804,0.02174
220.824,0.01181
220.964,0.03971
220.984,0.03482
221.004,0.03207
221.044,0.3367
221.086,-0.10404
221.122,0.0933
221.144,0.07587
221.162,0.05526
221.206,0.02597
221.244,0.01756
221.262,0.01613
221.324,0.07242
221.342,0.06702
221.384,-0.0106
221.424,0.00997
221.462,0.02417
221.484,0.02619
221.524,0.02561
221.54,0.01721
221.564,0.01325
221.606,0.01042
221.622,0.0027
221.746,0.03935
221.764,0.05193
221.826,0.36612
221.866,-0.09622
221.904,0.10413
221.922,0.10009
221.962,0.05323
221.984,0.03994
222.024,0.02547
222.046,0.02161
222.104,0.08553
222.162,-0.0088
222.188,-0.00845
222.222,0.00863
222.242,0.00305
222.264,0.01222
222.304,0.00719
222.324,0.00818
222.366,0.00018
222.382,0.00449
222.422,-0.0221
222.442,-0.02579
222.466,-0.04771
222.544,0.04816
222.582,0.04991
222.616,0.31069
222.684,0.08702
222.7,0.0911
222.742,0.06114
222.764,0.05557
222.782,0.05049
222.866,0.0345
222.904,0.05768
222.982,-0.00157
223.006,-0.00386
223.062,0.00687
223.084,0.00485
223.104,0.01851
223.124,0.01756
223.144,0.01181
223.184,-0.02556
223.264,0.03971
223.304,0.02749
223.334,0.21473
223.366,-0.08841
223.378,-0.08607
223.426,0.0575
223.442,0.05346
223.486,0.03958
223.504,0.04169
223.52,0.03086
223.544,0.00737
223.584,0.02475
223.606,0.03756
223.64,0.0212
223.704,-0.01473
223.724,-0.00642
223.784,0.00413
223.82,0.02749
223.844,0.03145
223.884,-0.00831
223.944,0.05624
223.962,0.05993
223.984,0.05409
224.0,0.04564
224.032,0.24829
224.076,-0.11267
224.124,0.06002
224.164,0.05251
224.182,0.04766
224.202,0.0513
224.244,0.02965
224.262,0.02749
224.326,0.06932
224.424,-0.00243
224.444,0.0058
224.464,0.01429
224.482,0.02071
224.504,0.0252
224.524,0.03086
224.542,0.02933
224.584,0.00139
224.644,0.06509
224.662,0.06774
224.682,0.06851
224.734,0.31468
224.822,0.10153
224.842,0.07673
224.862,0.05355
224.884,0.04897
224.9,0.04906
224.944,0.02296
225.004,0.07601
225.022,0.07915
225.102,-0.01815
225.122,-0.01002
225.144,0.00377
225.164,0.00139
225.184,0.00198
225.224,0.01172
225.244,0.02013
225.264,0.01873
225.382,0.04079
225.404,0.05193
225.468,0.32973
225.544,0.1084
225.562,0.09856
225.582,0.08621
225.602,0.06235
225.66,0.04438
225.68,0.03603
225.702,0.04762
225.742,0.08553
225.762,0.0818
225.824,-0.01577
225.844,-0.01545
225.904,0.01455
225.924,0.01473
225.96,0.02102
225.982,0.01945
226.004,0.01999
226.024,0.00903
226.044,0.00449
226.062,0.0031
226.162,0.04079
226.186,0.04299
226.2,0.05427
226.246,0.384
226.286,-0.10597
226.324,0.11662
226.382,0.06235
226.402,0.06204
226.42,0.05629
226.462,0.03252
226.52,0.09613
226.622,0.01334
226.644,0.02498
226.662,0.03109
226.684,0.03261
226.702,0.03832
226.724,0.02731
226.742,0.0265
226.766,0.02071
226.78,0.023
226.82,0.01074
226.842,0.00022
226.942,0.04906
226.96,0.05278
226.978,0.04137
227.024,0.32731
227.066,-0.11469
227.102,0.09888
227.122,0.09223
227.142,0.07062
227.16,0.0549
227.182,0.05606
227.2,0.04349
227.224,0.02552
227.244,0.0142
227.262,0.03234
227.304,0.06864
227.382,-0.00373
227.402,-0.00207
227.422,0.01222
227.442,0.02219
227.462,0.01887
227.482,0.02039
227.504,0.02493
227.562,0.02561
227.582,0.02354
227.602,0.02331
227.64,0.01429
227.682,-0.02174
227.76,0.0522
227.78,0.05341
227.838,0.30817
227.922,0.07888
227.964,0.05018
227.982,0.05013
228.0,0.04164
228.122,0.06918
228.182,-0.00544
228.202,-0.0097
228.224,-0.00436
228.238,-0.00296
228.262,0.00602
228.282,0.00845
228.304,0.0
228.32,0.00656
228.342,0.01527
228.36,0.00836
228.38,0.00566
228.402,0.00377
228.42,-0.00049
228.44,-0.00755
228.462,-0.00292
228.484,-0.00049
228.5,-0.00328
228.536,-0.03176
228.602,0.06204
228.62,0.06047
228.69,0.32901
228.764,0.08122
228.782,0.08082
228.802,0.06199
228.822,0.04964
228.84,0.05957
228.862,0.05126
228.884,0.02978
228.98,0.09793
229.042,-0.00162
229.06,-0.00633
229.082,0.00526
229.102,0.01181
229.12,0.01285
229.142,0.00665
229.16,0.01352
229.184,0.00845
229.202,0.01204
229.22,0.00759
229.24,0.00521
229.26,0.00993
229.3,-0.00076
229.32,-0.00054
229.342,0.00243
229.442,0.05773
229.462,0.06271
229.482,0.04766
229.518,0.36136
229.602,0.10072
229.662,0.05638
229.678,0.05678
229.702,0.05247
229.744,0.03118
229.782,0.0752
229.8,0.09088
229.86,0.0
229.882,-0.00463
229.902,0.00238
229.922,0.01972
229.942,0.00957
229.962,0.02462
229.984,0.01316
230.0,0.02412
230.02,0.0226
230.042,0.02444
230.058,0.02305
230.082,0.01788
230.1,0.019
230.12,0.02907
230.14,0.01842
230.16,0.00701
230.182,-0.01181
230.26,0.0681
230.282,0.07012
230.302,0.07264
230.338,0.30781
230.42,0.08576
230.442,0.07709
230.462,0.06631
230.484,0.05171
230.502,0.04708
230.522,0.03684
230.562,0.03077
230.586,0.03086
230.622,0.05948
230.662,0.00921
230.702,0.00031
230.72,0.00283
230.742,-0.00076
230.78,0.00746
230.8,0.01586
230.818,0.01707
230.842,0.01613
230.862,0.0212
230.878,0.01649
230.902,0.01366
230.922,0.00894
230.96,-0.03419
230.984,-0.05207
231.022,0.03845
231.06,0.05171
231.082,0.04694
231.11,0.32973
231.184,0.10076
231.2,0.09519
231.22,0.07601
231.24,0.05912
231.28,0.0442
231.3,0.03917
231.32,0.02331
231.382,0.07619
231.402,0.07242
231.462,-0.00198
231.48,-0.00508
231.498,-0.00184
231.52,0.01482
231.542,0.01527
231.56,0.00571
231.58,0.01833
231.6,0.02763
231.62,0.01995
231.64,0.02008
231.662,0.02547
231.68,0.02138
231.702,0.01923
231.72,0.00584
231.742,0.00458
231.76,-0.03014
231.84,0.05027
231.86,0.05867
231.884,0.04582
231.918,0.37466
232.002,0.11505
232.038,0.07206
232.062,0.06199
232.078,0.05552
232.122,0.02538
232.138,0.01851
232.202,0.07933
232.26,-0.00934
232.298,0.00665
232.324,0.01047
232.342,0.01586
232.36,0.0124
232.38,0.01779
232.4,0.01114
232.422,0.01366
232.44,0.01181
232.464,0.01038
232.478,0.01105
232.5,0.01514
232.602,0.06694
232.62,0.06312
232.64,0.06415
232.684,0.35094
232.762,0.10656
232.78,0.1071
232.8,0.08607
232.838,0.06415
232.88,0.04191
232.9,0.02426
232.922,0.02628
232.94,0.03899
232.96,0.06163
232.98,0.06505
233.044,0.01006
233.06,0.01168
233.102,0.01226
233.12,0.01819
233.142,0.02619
233.16,0.02331
233.18,0.02044
233.202,0.01756
233.222,0.01788
233.302,0.02417
233.318,0.04789
233.342,0.05445
233.36,0.04052
233.404,0.2796
233.448,-0.11419
233.478,0.08967
233.498,0.09411
233.538,0.05678
233.562,0.06357
233.66,0.03374
233.678,0.02534
233.7,0.02412
233.72,0.01424
233.74,0.00027
233.762,0.00274
233.78,0.0066
233.8,0.00067
233.82,0.0124
233.842,0.03365
233.898,0.02331
233.92,0.02287
233.94,0.0261
233.962,0.02138
234.06,0.0509
234.08,0.04057
234.102,0.03374
234.14,0.32219
234.18,-0.10512
234.22,0.09551
234.24,0.0827
234.26,0.06204
234.28,0.06065
234.298,0.06145
234.36,0.01653
234.382,0.03073
234.42,0.0606
234.48,-0.00773
234.5,-0.01047
234.52,0.01006
234.54,0.01042
234.56,0.02031
234.58,0.02727
234.62,0.0133
234.64,0.02183
234.66,0.02592
234.7,0.00827
234.8,0.04196
234.82,0.04245
234.838,0.02331
234.86,0.03261
234.886,0.31644
234.962,0.09807
234.978,0.10323
235.002,0.0801
235.04,0.06433
235.056,0.06074
235.08,0.04137
235.096,0.02862
235.12,0.02314
235.18,0.06163
235.216,-0.01119
235.258,0.00737
235.28,0.01011
235.3,0.03131
235.32,0.03154
235.342,0.02435
235.38,0.03648
235.4,0.01959
235.42,0.0106
235.44,0.01509
235.462,0.00521
235.5,-0.02785
235.578,0.04771
235.598,0.05234
235.658,0.34483
235.7,-0.07686
235.742,0.1203
235.798,0.07457
235.822,0.05984
235.842,0.04879
235.92,0.04762
235.94,0.05777
235.956,0.04447
235.978,0.0239
236.002,0.01181
236.02,0.01599
236.042,0.01851
236.06,0.03805
236.08,0.03648
236.1,0.03293
236.122,0.02269
236.14,0.03154
236.158,0.03365
236.178,0.03769
236.198,0.03648
236.218,0.03122
236.26,-0.01186
236.338,0.05714
236.36,0.04865
236.38,0.04919
236.418,0.29604
236.458,-0.09708
236.502,0.08787
236.52,0.07673
236.562,0.05687
236.58,0.04169
236.6,0.03971
236.638,-0.00103
236.678,0.02376
236.698,0.0288
236.72,0.02147
236.76,0.00103
236.778,-0.00225
236.802,0.00822
236.818,0.01334
236.836,0.01146
236.86,0.01869
236.88,0.01873
236.9,0.01891
236.92,0.02305
236.942,0.01222
236.96,0.00809
236.98,-0.00013
236.996,-0.00247
237.018,-0.00112
237.098,0.02282
237.118,0.03877
237.138,0.04474
237.16,0.04456
237.202,0.33265
237.242,-0.10251
237.28,0.10175
237.296,0.09366
237.318,0.07817
237.34,0.06065
237.356,0.05948
237.378,0.05373
237.418,0.01797
237.48,0.05674
237.498,0.05427
237.538,-0.00247
237.558,0.00952
237.58,0.01168
237.6,0.01096
237.62,0.02066
237.636,0.02763
237.656,0.02331
237.68,0.01276
237.7,0.01649
237.718,0.00436
237.738,0.01047
237.76,0.01128
237.78,0.00431
237.798,-0.00341
237.818,-0.01222
237.84,-0.04245
237.918,0.04524
237.936,0.05494
237.96,0.0509
238.0,0.35143
238.04,-0.09744
238.076,0.10552
238.098,0.09941
238.118,0.07048
238.158,0.06478
238.178,0.05822
238.198,0.03181
238.22,0.0164
238.28,0.07291
238.316,0.03419
238.34,0.01455
238.354,0.01797
238.378,0.03365
238.418,0.04057
238.458,0.03239
238.476,0.03181
238.498,0.03482
238.518,0.03374
238.54,0.03365
238.56,0.02785
238.576,0.01289
238.678,0.06154
238.7,0.05719
238.72,0.06114
238.764,0.28818
238.808,-0.09649
238.84,0.08607
238.858,0.09326
238.88,0.07017
238.898,0.0584
238.958,0.04155
238.978,0.01294
238.998,0.00031
239.018,0.0155
239.056,0.03396
239.076,0.02498
239.12,0.0106
239.138,0.015
239.156,0.0106
239.182,0.01132
239.198,0.02736
239.222,0.02453
239.24,0.02318
239.256,0.02722
239.282,0.01752
239.374,-0.04717
239.438,0.02534
239.48,0.03863
239.498,0.03216
239.528,0.30844
239.598,0.08405
239.616,0.10512
239.656,0.06828
239.676,0.05386
239.698,0.05782
239.714,0.04241
239.738,0.02331
239.796,0.04977
239.818,0.05858
239.84,0.03194
239.858,0.00094
239.896,0.01289
239.956,0.03073
239.98,0.03293
239.996,0.02601
240.016,0.0469
240.038,0.03666
240.06,0.04043
240.08,0.03468
240.112,0.00022
240.136,-0.02138
240.158,0.05049
240.178,0.0765
240.196,0.07062
240.22,0.069
240.264,0.19645
240.296,0.0239
240.31,-0.00544
240.358,0.05611
240.418,0.05449
240.436,0.02623
240.458,0.00678
240.478,0.00463
240.5,-0.0044
240.542,0.09973
240.56,0.14326
240.576,0.13104
240.6,0.11392
240.636,0.09146
240.658,0.08369
240.678,0.06204
240.696,0.05449
240.716,0.03127
240.736,0.03423
240.76,0.01707
240.82,0.06253
240.834,0.07277
240.856,0.06163
240.872,0.04766
240.914,0.07098
240.948,0.15117
240.994,-0.08513
241.098,-0.04829
241.118,-0.04524
241.158,-0.0615
241.182,-0.03037
241.198,0.00211
241.218,0.00305
241.236,0.00027
241.254,0.01658
241.276,0.00252
241.3,0.01447
241.318,0.01995
241.38,0.02785
241.396,0.03181
241.418,0.03158
241.518,0.11648
241.538,0.1106
241.558,0.12385
241.592,0.22628
241.626,0.23328
241.678,0.11123
241.696,0.08477
241.738,0.08607
241.756,0.05355
241.78,0.04474
241.798,0.03738
241.816,0.03769
241.878,0.12035
241.936,0.07255
241.958,0.07799
241.976,0.08387
241.996,0.06132
242.014,0.05782
242.04,0.06725
242.058,0.08953
242.074,0.09699
242.112,0.03738
242.136,-0.00337
242.176,0.08073
242.262,0.1075
242.304,-0.00256
242.358,0.02219
242.378,0.00175
242.398,0.00795
242.416,0.02713
242.436,0.01509
242.538,0.06038
242.558,0.05782
242.616,-0.0482
242.638,-0.05
242.66,-0.0447
242.674,-0.04043
242.698,-0.03926
242.716,-0.02462
242.738,-0.01869
242.756,-0.00952
242.774,-0.0088
242.798,-0.04906
242.876,0.01473
242.898,0.00171
242.916,-0.01042
242.95,0.20193
242.992,-0.11033
243.038,0.05624
243.054,0.0447
243.078,0.03747
243.098,0.05027
243.116,0.0593
243.138,0.04277
243.154,0.03477
243.2,0.07835
243.216,0.09937
243.238,0.10764
243.298,-0.02547
243.316,-0.03266
243.336,-0.02821
243.354,-0.03145
243.378,-0.02475
243.396,-0.0274
243.438,0.00355
243.476,-0.02561
243.54,0.06258
243.558,0.07803
243.576,0.07471
243.594,0.06833
243.626,0.32834
243.696,0.13135
243.716,0.12812
243.736,0.10876
243.778,0.09537
243.796,0.09658
243.858,0.0832
243.898,0.11914
243.914,0.10377
243.974,0.02035
244.016,0.01433
244.038,0.03827
244.076,0.03104
244.096,0.03324
244.196,0.06932
244.218,0.07309
244.234,0.06873
244.278,0.1739
244.314,0.0217
244.326,-0.03859
244.356,0.03863
244.376,0.04384
244.396,0.03441
244.436,0.0221
244.454,0.01945
244.476,-0.00332
244.498,-0.00683
244.558,0.05391
244.596,0.02188
244.614,0.00975
244.638,-0.00544
244.658,-0.0004
244.68,-0.01119
244.696,0.00229
244.736,0.02197
244.816,0.05022
244.836,0.07439
244.856,0.07695
244.874,0.07188
244.916,0.24923
244.96,-0.04865
244.998,0.07066
245.016,0.0593
245.058,0.04061
245.076,0.04205
245.114,0.02331
245.136,0.03122
245.198,0.09542
245.254,-0.00984
245.274,-0.02008
245.296,-0.01945
245.338,9e-05
245.358,0.00521
245.376,0.00656
245.398,-0.02489
245.476,0.06577
245.496,0.05696
245.514,0.04977
245.548,0.27821
245.636,0.10206
245.676,0.0672
245.694,0.06379
245.716,0.0624
245.738,0.04775
245.754,0.04277
245.816,0.10085
245.9,-0.01851
245.914,-0.0088
245.934,-0.01047
245.954,-0.00984
245.976,-0.01514
245.998,-0.00633
246.014,-0.01006
246.034,-0.04057
246.116,0.05009
246.186,0.2964
246.256,0.10373
246.314,0.06415
246.336,0.05157
246.374,0.03019
246.396,0.01869
246.458,0.08068
246.474,0.07817
246.514,-0.01119
246.576,-0.00054
246.594,-0.00067
246.634,-0.0062
246.658,-0.00314
246.754,0.04115
246.776,0.03971
246.796,0.02318
246.84,0.27021
246.882,-0.11015
246.918,0.08715
246.934,0.08796
246.954,0.06756
246.976,0.05485
246.994,0.05373
247.054,0.02066
247.096,0.04443
247.116,0.05898
247.196,-0.03526
247.216,-0.031
247.234,-0.01689
247.256,-0.00157
247.296,-0.00436
247.314,0.00153
247.414,0.04663
247.434,0.0482
247.454,0.04021
247.472,0.03612
247.5,0.28247
247.542,-0.12084
247.574,0.08872
247.594,0.08504
247.638,0.04676
247.658,0.05063
247.674,0.05251
247.694,0.03684
247.714,0.02933
247.776,0.08477
247.854,-0.01707
247.874,-0.01168
247.894,-0.00499
247.916,-0.0027
247.956,-0.00067
247.976,0.00022
247.996,0.01159
248.014,0.01132
248.034,-0.00687
248.096,0.04187
248.114,0.04982
248.132,0.04164
248.154,0.04079
248.188,0.29415
248.274,0.11491
248.314,0.08913
248.336,0.08787
248.352,0.08234
248.394,0.06536
248.452,0.11091
248.47,0.11231
248.534,0.01703
248.556,0.02031
248.576,0.02754
248.596,0.03684
248.614,0.04187
248.632,0.03396
248.656,0.04402
248.676,0.05207
248.694,0.05508
248.732,0.02632
248.756,-0.04223
248.814,0.0814
248.834,0.07835
248.856,0.05916
248.882,0.2818
248.956,0.10368
248.974,0.11613
248.992,0.08868
249.014,0.07354
249.034,0.06635
249.054,0.05588
249.076,0.03935
249.096,0.01995
249.116,0.02583
249.156,0.06662
249.236,-0.0142
249.274,-0.01451
249.294,-0.00809
249.316,0.0009
249.334,-0.00548
249.376,0.00076
249.396,0.00557
249.412,-0.0018
249.452,-0.04016
249.476,-0.08675
249.536,0.03086
249.572,0.0208
249.6,0.28557
249.694,0.09542
249.754,0.0566
249.794,0.03791
249.816,0.02188
249.872,0.06343
249.954,-0.03288
249.974,-0.02228
249.992,-0.01339
250.016,-0.00723
250.056,-0.01024
250.072,-0.00359
250.096,0.00171
250.112,0.00544
250.134,-0.00162
250.154,-0.00624
250.19,-0.05422
250.256,0.04906
250.274,0.04402
250.314,0.0358
250.34,0.32273
250.416,0.11383
250.434,0.10894
250.452,0.08625
250.474,0.07781
250.494,0.08194
250.554,0.03482
250.614,0.07354
250.694,-0.01541
250.714,-0.01119
250.734,-0.00364
250.754,-0.00112
250.794,0.00085
250.812,0.01114
250.834,0.01294
250.854,0.00431
250.874,0.01244
250.912,-0.03163
250.976,0.03809
250.992,0.04021
251.012,0.04699
251.032,0.04546
251.06,0.24182
251.134,0.07888
251.152,0.08248
251.174,0.06294
251.192,0.065
251.214,0.05278
251.232,0.03338
251.254,0.02116
251.276,0.00283
251.314,0.02597
251.334,0.03437
251.354,0.02731
251.372,0.00863
251.394,-0.00377
251.414,-0.00323
251.434,-0.00319
251.454,0.00647
251.474,0.01033
251.492,0.01617
251.514,0.01837
251.534,0.0248
251.556,0.02534
251.572,0.01887
251.592,0.03086
251.612,0.03311
251.714,0.05593
251.734,0.05732
251.79,0.29357
251.874,0.09865
251.89,0.07695
251.936,0.06101
251.952,0.06038
251.972,0.04632
252.016,0.02785
252.052,0.07017
252.072,0.07507
252.134,-0.01307
252.154,-0.00409
252.174,0.00867
252.196,0.0088
252.212,0.01455
252.234,0.01635
252.254,0.01581
252.272,0.019
252.292,0.01756
252.314,0.02102
252.334,0.01923
252.354,0.01977
252.374,0.01101
252.394,-0.03279
252.474,0.04259
252.492,0.04726
252.512,0.03899
252.548,0.32807
252.632,0.12143
252.692,0.07933
252.714,0.07601
252.732,0.0575
252.772,0.04057
252.812,0.08046
252.834,0.07915
252.914,-0.00256
252.954,0.01222
252.97,0.01887
253.054,0.02641
253.072,0.02772
253.094,0.02426
253.112,0.01469
253.132,0.01096
253.15,-0.02269
253.232,0.05103
253.254,0.04524
253.272,0.04443
253.302,0.18778
253.334,-0.07731
253.392,0.05409
253.414,0.04834
253.432,0.03827
253.454,0.04209
253.512,-0.01514
253.554,-0.00234
253.592,0.01815
253.612,0.00597
253.634,0.00027
253.654,0.01137
253.67,0.00863
253.696,0.01006
253.752,0.0009
253.774,0.00126
253.874,0.03886
253.91,0.02641
253.934,0.01981
253.958,0.13805
253.992,0.07327
254.006,-0.02677
254.054,0.03333
254.074,0.02399
254.092,0.02138
254.114,0.03904
254.134,0.02511
254.174,0.00288
254.236,0.03809
254.252,0.03607
254.274,0.02174
254.29,0.01312
254.314,0.00243
254.332,-0.00261
254.394,0.00867
254.414,0.01352
254.434,0.02893
254.452,0.0283
254.474,0.05094
254.574,0.07969
254.592,0.07251
254.614,0.06294
254.652,0.26796
254.692,-0.04277
254.734,0.06595
254.754,0.05126
254.776,0.03648
254.814,0.05013
254.832,0.04366
254.854,0.03374
254.934,0.09834
254.994,-0.01168
255.014,-0.004
255.032,-0.0004
255.052,0.00427
255.074,0.01186
255.092,0.00584
255.114,0.00144
255.136,0.01083
255.154,0.00503
255.172,0.00633
255.196,0.01096
255.292,0.06496
255.312,0.06882
255.376,0.32578
255.416,-0.0889
255.452,0.10472
255.512,0.06774
255.59,0.02848
255.654,0.09995
255.672,0.0929
255.712,-0.01523
255.774,0.01635
255.792,0.01464
255.812,0.01887
255.832,0.01316
255.852,0.01635
255.874,0.01873
255.892,0.01972
255.914,0.01644
255.934,0.01707
256.032,0.03738
256.074,0.04528
256.118,0.34074
256.194,0.11518
256.21,0.10692
256.27,0.06909
256.292,0.05539
256.31,0.03904
256.334,0.02448
256.374,0.07286
256.392,0.08913
256.474,-0.03199
256.494,-0.02269
256.514,0.00499
256.532,0.00957
256.554,0.00786
256.57,0.00898
256.594,0.01887
256.612,0.01473
256.632,0.0142
256.654,0.00413
256.672,0.00606
256.712,-0.04043
256.774,0.03814
256.792,0.04906
256.812,0.04331
256.834,0.03589
256.862,0.33167
256.95,0.11415
256.97,0.09169
256.992,0.07736
257.012,0.07295
257.03,0.06676
257.052,0.04438
257.092,0.04057
257.132,0.08589
257.152,0.07691
257.234,-0.01905
257.254,-0.00732
257.272,0.00723
257.292,0.01024
257.31,0.01635
257.334,0.02534
257.35,0.0186
257.37,0.02084
257.392,0.02035
257.43,-0.03378
257.494,0.0442
257.508,0.04299
257.532,0.04775
257.576,0.30974
257.652,0.09398
257.674,0.08711
257.69,0.0712
257.732,0.07277
257.754,0.05269
257.772,0.03832
257.79,0.0265
257.852,0.08261
257.952,-0.0248
257.994,0.00305
258.012,0.00701
258.032,0.00925
258.054,0.02462
258.072,0.027
258.09,0.02534
258.192,0.03329
258.212,0.04443
258.234,0.03459
258.272,0.3207
258.354,0.09645
258.37,0.09591
258.392,0.08082
258.412,0.0823
258.432,0.0779
258.454,0.06154
258.496,0.04488
258.55,0.10844
258.632,-0.02709
258.674,-0.00759
258.692,-0.00521
258.71,0.00382
258.734,0.01384
258.75,0.01384
258.772,0.02668
258.792,0.02084
258.894,0.05984
258.914,0.05485
258.932,0.04726
258.972,0.3446
259.014,-0.12309
259.052,0.10449
259.072,0.10696
259.092,0.08729
259.112,0.07983
259.128,0.07358
259.194,0.05
259.212,0.06599
259.232,0.0942
259.254,0.10031
259.354,-0.01262
259.372,-0.00481
259.392,-0.00054
259.412,-0.00054
259.434,0.00907
259.452,0.01379
259.472,0.01941
259.492,0.01177
259.59,0.04942
259.612,0.04977
259.634,0.04313
259.674,0.33782
259.752,0.12421
259.772,0.11015
259.79,0.0987
259.814,0.08832
259.83,0.07745
259.848,0.06743
259.87,0.05355
259.894,0.04726
259.952,0.10117
260.03,-0.03329
260.07,-0.01846
260.11,-0.00085
260.172,0.0137
260.192,0.01734
260.212,-0.01595
260.31,0.05696
260.332,0.0473
260.368,0.27551
260.454,0.09196
260.47,0.08127
260.492,0.07044
260.512,0.07556
260.53,0.06873
260.57,0.02754
260.612,0.04968
260.652,0.07264
260.712,-0.02641
260.728,-0.02996
260.752,-0.02269
260.772,-0.00773
260.792,-0.00377
260.812,0.00031
260.83,0.01222
260.852,0.01038
260.872,0.01855
260.89,0.0093
260.91,-0.00952
260.934,-0.07242
260.974,0.04694
260.99,0.0535
261.012,0.04843
261.032,0.04546
261.06,0.30655
261.13,0.10454
261.15,0.11091
261.172,0.09524
261.21,0.08032
261.232,0.06694
261.332,0.09389
261.348,0.09151
261.412,-0.04245
261.432,-0.03625
261.452,-0.0177
261.472,-0.01343
261.494,-0.00755
261.512,-0.00373
261.532,-0.00404
261.55,0.00557
261.57,0.00279
261.59,0.00696
261.612,0.01455
261.648,-0.02956
261.674,-0.05768
261.694,0.02543
261.712,0.05409
261.73,0.05355
261.75,0.04942
261.772,0.0509
261.798,0.34007
261.892,0.11374
261.91,0.09672
261.934,0.07601
261.952,0.07839
261.992,0.0403
262.014,0.03109
262.032,0.04708
262.072,0.08998
262.154,-0.0186
262.172,0.00126
262.21,0.00795
262.232,0.01002
262.252,0.00683
262.272,0.02305
262.292,0.02008
262.31,0.01932
262.332,0.02579
262.432,0.05207
262.452,0.04955
262.47,0.0571
262.512,0.34523
262.552,-0.09744
262.59,0.13257
262.608,0.12093
262.63,0.09955
262.65,0.09434
262.672,0.0779
262.69,0.06828
262.706,0.0394
262.734,0.04205
262.772,0.07565
262.79,0.08194
262.872,-0.01024
262.912,0.00809
262.928,0.00809
262.952,0.01181
262.992,0.0177
263.01,0.01869
263.03,0.02471
263.05,0.02403
263.15,0.04627
263.172,0.03994
263.19,0.03863
263.23,0.32183
263.272,-0.12363
263.31,0.09973
263.352,0.07691
263.372,0.07003
263.392,0.06325
263.43,0.02835
263.452,0.02084
263.51,0.0624
263.57,-0.02026
263.592,-0.01334
263.61,-0.0106
263.632,0.00458
263.652,0.00777
263.67,0.00247
263.69,0.01204
263.714,0.01352
263.732,0.01864
263.752,0.02075
263.852,0.04946
263.872,0.05283
263.89,0.04519
263.932,0.31248
264.014,0.10687
264.07,0.08207
264.088,0.07673
264.13,0.0425
264.15,0.03396
264.194,0.07098
264.21,0.07817
264.228,0.06608
264.272,-0.00517
264.29,0.00341
264.31,0.00701
264.332,0.00377
264.352,0.00018
264.368,-0.0027
264.392,0.0088
264.41,0.03482
264.434,0.02965
264.452,0.0416
264.47,0.03706
264.49,0.02534
264.512,-0.00979
264.588,0.05503
264.61,0.05534
264.63,0.04843
264.666,0.33131
264.748,0.12017
264.768,0.10476
264.79,0.0933
264.812,0.08145
264.848,0.05463
264.87,0.03374
264.888,0.02291
264.908,0.03913
264.952,0.05984
265.012,-0.02098
265.03,-0.01307
265.05,-0.00768
265.072,-0.0004
265.092,0.00377
265.114,0.00031
265.13,0.00022
265.15,0.00575
265.17,0.00382
265.19,0.01213
265.23,0.01523
265.35,0.04986
265.372,0.04349
265.414,0.3442
265.488,0.12327
265.53,0.10045
265.552,0.09793
265.57,0.07758
265.588,0.06837
265.61,0.03917
265.65,0.03612
265.692,0.05912
265.73,0.02498
265.75,0.00966
265.77,0.00449
265.792,0.02066
265.812,0.01065
265.87,0.00597
265.89,0.01842
265.91,0.01181
265.93,0.01491
265.95,0.02066
265.988,-0.01523
266.01,-0.07152
266.052,0.05072
266.112,0.03338
266.138,0.2455
266.212,0.08657
266.232,0.0929
266.268,0.06038
266.308,0.05265
266.33,0.03791
266.35,0.01694
266.41,0.03131
266.426,0.02808
266.512,-0.00593
266.548,0.01137
266.572,0.00988
266.59,0.01527
266.61,0.01756
266.63,0.01114
266.652,0.01716
266.67,0.01155
266.692,0.01204
266.708,0.01029
266.81,0.04524
266.828,0.04277
266.85,0.04443
266.892,0.31518
266.934,-0.08598
266.97,0.12093
267.01,0.09564
267.028,0.07906
267.05,0.07614
267.07,0.0628
267.088,0.03899
267.106,0.02592
267.132,0.02664
267.172,0.06038
267.21,0.02264
267.232,0.00198
267.248,0.01415
267.268,0.00997
267.29,0.01972
267.326,0.02331
267.372,0.01348
267.39,0.02031
267.412,0.0279
267.43,0.03001
267.452,0.01743
267.468,0.01455
267.49,0.00418
267.526,-0.03023
267.592,0.04632
267.61,0.04762
267.646,0.04416
267.684,0.32722
267.768,0.11091
267.788,0.09555
267.812,0.08113
267.83,0.07484
267.85,0.069
267.87,0.0398
267.91,0.01509
267.93,0.02826
267.952,0.05521
267.968,0.06761
268.032,0.0106
268.052,0.01514
268.088,0.02902
268.112,0.02516
268.13,0.0199
268.152,0.01181
268.172,0.01101
268.186,0.00827
268.21,0.01954
268.25,0.01253
268.27,0.00813
268.29,-0.00341
268.33,-0.00508
268.352,-0.01015
268.37,-0.02273
268.47,0.05993
268.49,0.0717
268.534,0.3464
268.574,-0.119
268.608,0.10202
268.67,0.06604
268.69,0.05862
268.708,0.04775
268.728,0.03149
268.75,0.01545
268.772,0.03037
268.792,0.05108
268.81,0.07107
268.85,0.05049
268.868,0.023
268.892,0.01024
268.908,0.0221
268.932,0.02044
268.952,0.02251
268.968,0.02516
268.992,0.0124
269.008,0.00916
269.028,0.01509
269.05,0.00755
269.07,0.00674
269.09,0.0035
269.108,0.00575
269.13,0.00234
269.152,-0.00121
269.168,-0.00517
269.19,-0.0044
269.21,-0.02399
269.272,0.06118
269.29,0.06801
269.308,0.06846
269.328,0.0628
269.368,0.35529
269.408,-0.09277
269.45,0.09793
269.49,0.07731
269.508,0.05517
269.528,0.0553
269.57,0.0283
269.592,0.02084
269.63,0.06869
269.65,0.0712
269.668,0.07664
269.71,0.01455
269.73,0.01491
269.75,0.02327
269.77,0.03297
269.806,0.02615
269.83,0.02462
269.85,0.023
269.87,0.02228
269.89,0.01527
269.93,0.01792
269.95,0.00894
269.97,0.01038
269.99,0.01204
270.01,0.01132
270.03,0.01141
270.05,0.00665
270.112,0.06783
270.13,0.08248
270.148,0.07242
270.168,0.06909
270.206,0.30651
270.29,0.09223
270.328,0.06977
270.386,0.03005
270.43,0.01096
270.45,0.0155
270.49,0.05386
270.506,0.04667
270.53,0.02884
270.552,0.01168
270.568,0.01438
270.59,0.00723
270.61,0.0111
270.632,0.01285
270.648,0.01936
270.67,0.00872
270.688,0.00925
270.708,0.01038
270.726,0.01671
270.766,-0.00503
270.79,-0.00629
270.81,-0.00341
270.828,-0.00809
270.872,-0.0823
270.908,0.02201
270.93,0.03288
270.952,0.03194
270.968,0.03091
271.01,0.29456
271.05,-0.12794
271.088,0.07197
271.11,0.0672
271.168,0.05058
271.19,0.02156
271.206,0.00512
271.226,-0.00252
271.268,0.04007
271.292,0.05826
271.308,0.05269
271.41,0.01783
271.43,0.01276
271.45,0.02125
271.466,0.0146
271.492,0.00863
271.51,0.00458
271.532,0.00849
271.55,0.00863
271.57,0.00975
271.59,0.01635
271.63,0.00993
271.65,0.00678
271.77,0.06617
271.832,0.35202
271.872,-0.10799
271.91,0.10638
271.93,0.08967
271.948,0.06343
271.97,0.06536
271.99,0.06285
272.01,0.03877
272.028,0.02287
272.048,0.01222
272.112,0.07578
272.128,0.09218
272.168,0.00737
272.188,0.00126
272.21,0.01181
272.228,0.01756
272.27,0.01797
272.288,0.01168
272.308,0.01262
272.326,0.01006
272.352,0.00876
272.368,0.01312
272.39,0.00323
272.41,0.01285
272.428,0.00126
272.448,0.00674
272.49,-0.02269
272.57,0.08428
272.59,0.0832
272.608,0.07444
272.644,0.34532
272.73,0.12524
272.77,0.08796
272.786,0.07313
272.808,0.06743
272.828,0.04762
272.85,0.04313
272.91,0.07812
272.928,0.09043
272.968,0.04537
272.988,0.01963
273.03,0.02641
273.046,0.02511
273.068,0.02677
273.088,0.01438
273.108,0.02143
273.13,0.01806
273.148,0.01756
273.17,0.02057
273.192,0.01038
273.208,0.00499
273.328,0.04694
273.35,0.0566
273.408,0.26181
273.452,-0.10319
273.488,0.08459
273.53,0.06002
273.55,0.05027
273.568,0.04654
273.608,0.0049
273.63,-0.00175
273.67,0.01815
273.69,0.03612
273.708,0.03576
273.748,0.00031
273.77,0.00126
273.79,0.00449
273.81,-0.00126
273.83,0.00952
273.85,0.01756
273.87,0.0221
273.888,0.02439
273.908,0.02435
273.93,0.01972
273.95,0.01712
273.968,0.00921
274.052,0.02426
274.068,0.03459
274.092,0.03441
274.108,0.0345
274.15,0.29631
274.194,-0.1141
274.232,0.08702
274.248,0.07929
274.268,0.06033
274.288,0.06047
274.31,0.06509
274.328,0.04748
274.35,0.02718
274.366,0.01505
274.39,0.02448
274.41,0.04331
274.45,0.07569
274.488,-0.01033
274.512,-0.01721
274.53,-0.01563
274.55,0.00562
274.568,0.00916
274.588,0.01864
274.61,0.01002
274.63,0.01177
274.648,0.0097
274.67,0.01402
274.688,0.01384
274.71,0.01276
274.726,0.00413
274.812,0.03212
274.83,0.04632
274.848,0.05072
274.872,0.04798
274.906,0.3353
274.992,0.11469
275.008,0.09124
275.028,0.07853
275.07,0.06127
275.108,0.03306
275.17,0.07996
275.188,0.08594
275.246,-0.00916
275.27,0.00027
275.29,0.01779
275.31,0.01541
275.33,0.02048
275.348,0.01276
275.37,0.01577
275.39,0.01119
275.412,0.01887
275.432,0.01779
275.448,0.01357
275.468,0.01393
275.49,-0.0217
275.568,0.05588
275.59,0.05094
275.644,0.3446
275.726,0.13046
275.748,0.11267
275.768,0.09685
275.79,0.09519
275.808,0.08751
275.872,0.03109
275.892,0.05409
275.91,0.08171
275.93,0.08648
275.946,0.06707
276.01,0.01707
276.032,0.01635
276.05,0.02269
276.074,0.01959
276.09,0.02201
276.108,0.02426
276.13,0.03657
276.148,0.02736
276.168,0.03657
276.21,0.00247
276.272,0.04236
276.29,0.04995
276.31,0.04933
276.334,0.03333
276.366,0.26199
276.41,-0.09321
276.45,0.09793
276.468,0.06927
276.492,0.07134
276.508,0.06981
276.548,0.02606
276.568,0.0093
276.588,0.00319
276.61,0.01276
276.63,0.0319
276.652,0.03338
276.672,0.02296
276.708,-0.01213
276.728,-0.01132
276.75,-0.00966
276.772,0.00108
276.792,0.00827
276.812,0.0075
276.832,0.00809
276.848,0.01671
276.872,0.01491
276.89,0.01932
276.912,0.01855
277.01,0.04164
277.032,0.03872
277.094,0.303
277.134,-0.1274
277.172,0.09542
277.19,0.08068
277.208,0.05894
277.23,0.06415
277.248,0.05853
277.288,0.03468
277.312,0.01491
277.332,0.03167
277.372,0.08486
277.388,0.0814
277.452,-0.02713
277.47,-0.01765
277.49,-0.00328
